,MLII,V2,symbol
0,-0.375,0.05,
1,-0.375,0.05,
2,-0.375,0.05,
3,-0.375,0.05,
4,-0.375,0.05,
5,-0.375,0.05,
6,-0.375,0.05,
7,-0.375,0.05,
8,-0.385,0.05,
9,-0.385,0.035,
10,-0.385,0.035,
11,-0.38,0.05,
12,-0.36,0.065,
13,-0.36,0.065,
14,-0.37,0.04,
15,-0.365,0.045,
16,-0.37,0.035,
17,-0.36,0.055,
18,-0.355,0.07,
19,-0.345,0.075,
20,-0.34,0.065,
21,-0.345,0.055,+
22,-0.345,0.07,
23,-0.33,0.08,
24,-0.325,0.09,
25,-0.31,0.085,
26,-0.305,0.09,
27,-0.31,0.085,
28,-0.31,0.085,
29,-0.3,0.105,
30,-0.28,0.12,
31,-0.25,0.125,
32,-0.25,0.12,
33,-0.245,0.125,
34,-0.235,0.135,
35,-0.22,0.145,
36,-0.195,0.16,
37,-0.165,0.165,
38,-0.16,0.175,
39,-0.16,0.17,
40,-0.135,0.18,
41,-0.12,0.21,
42,-0.09,0.23,
43,-0.06,0.235,
44,-0.045,0.24,
45,-0.035,0.255,
46,-0.015,0.255,
47,0.0,0.275,
48,0.03,0.3,
49,0.06,0.295,
50,0.07,0.315,
51,0.075,0.315,
52,0.075,0.335,
53,0.1,0.35,
54,0.11,0.35,
55,0.135,0.355,
56,0.13,0.355,
57,0.145,0.35,
58,0.135,0.355,
59,0.16,0.37,
60,0.165,0.39,
61,0.175,0.395,
62,0.185,0.385,
63,0.175,0.37,
64,0.165,0.365,
65,0.17,0.38,
66,0.16,0.385,
67,0.15,0.375,
68,0.14,0.37,
69,0.12,0.345,
70,0.085,0.345,
71,0.08,0.335,
72,0.07,0.33,
73,0.055,0.31,
74,0.02,0.28,
75,-0.005,0.265,
76,-0.05,0.25,
77,-0.065,0.24,
78,-0.085,0.225,
79,-0.095,0.205,
80,-0.125,0.18,
81,-0.145,0.165,
82,-0.165,0.145,
83,-0.175,0.135,
84,-0.185,0.13,
85,-0.205,0.125,
86,-0.215,0.105,
87,-0.22,0.085,
88,-0.23,0.075,
89,-0.245,0.08,
90,-0.24,0.08,
91,-0.245,0.075,
92,-0.245,0.06,
93,-0.265,0.04,
94,-0.265,0.04,
95,-0.265,0.05,
96,-0.26,0.065,
97,-0.255,0.05,
98,-0.27,0.04,
99,-0.265,0.03,
100,-0.275,0.03,
101,-0.265,0.035,
102,-0.275,0.045,
103,-0.265,0.045,
104,-0.27,0.035,
105,-0.265,0.025,
106,-0.28,0.015,
107,-0.285,0.02,
108,-0.275,0.035,
109,-0.26,0.045,
110,-0.25,0.045,
111,-0.265,0.04,
112,-0.27,0.025,
113,-0.265,0.045,
114,-0.24,0.06,
115,-0.245,0.06,
116,-0.25,0.045,
117,-0.25,0.04,
118,-0.255,0.05,
119,-0.24,0.055,
120,-0.23,0.07,
121,-0.225,0.07,
122,-0.23,0.07,
123,-0.24,0.05,
124,-0.24,0.055,
125,-0.24,0.065,
126,-0.22,0.065,
127,-0.22,0.075,
128,-0.22,0.065,
129,-0.225,0.06,
130,-0.24,0.065,
131,-0.235,0.07,
132,-0.215,0.09,
133,-0.22,0.07,
134,-0.23,0.06,
135,-0.23,0.065,
136,-0.235,0.055,
137,-0.235,0.065,
138,-0.22,0.065,
139,-0.215,0.08,
140,-0.23,0.075,
141,-0.24,0.07,
142,-0.25,0.06,
143,-0.245,0.06,
144,-0.24,0.065,
145,-0.24,0.07,
146,-0.235,0.05,
147,-0.25,0.045,
148,-0.255,0.045,
149,-0.255,0.05,
150,-0.25,0.06,
151,-0.245,0.05,
152,-0.255,0.04,
153,-0.27,0.03,
154,-0.27,0.02,
155,-0.265,0.02,
156,-0.26,0.04,
157,-0.255,0.025,
158,-0.27,0.025,
159,-0.28,0.025,
160,-0.29,0.01,
161,-0.285,0.015,
162,-0.285,0.03,
163,-0.29,0.01,
164,-0.29,0.0,
165,-0.29,-0.01,
166,-0.3,-0.01,
167,-0.295,-0.005,
168,-0.3,0.005,
169,-0.3,0.0,
170,-0.305,-0.005,
171,-0.3,-0.02,
172,-0.32,-0.02,
173,-0.315,-0.01,
174,-0.315,-0.01,
175,-0.3,-0.01,
176,-0.31,-0.025,
177,-0.31,-0.035,
178,-0.325,-0.03,
179,-0.325,-0.02,
180,-0.32,-0.015,
181,-0.32,-0.015,
182,-0.31,-0.03,
183,-0.325,-0.045,
184,-0.325,-0.04,
185,-0.32,-0.04,
186,-0.315,-0.02,
187,-0.295,-0.035,
188,-0.275,-0.03,
189,-0.28,-0.045,
190,-0.28,-0.04,
191,-0.265,-0.025,
192,-0.255,-0.015,
193,-0.245,-0.015,
194,-0.24,-0.025,
195,-0.235,-0.035,
196,-0.245,-0.03,
197,-0.24,-0.015,
198,-0.235,-0.005,
199,-0.215,-0.01,
200,-0.215,-0.02,
201,-0.215,-0.03,
202,-0.23,-0.025,
203,-0.22,-0.02,
204,-0.21,-0.01,
205,-0.205,-0.02,
206,-0.215,-0.015,
207,-0.215,-0.035,
208,-0.245,-0.04,
209,-0.255,-0.04,
210,-0.25,-0.04,
211,-0.26,-0.06,
212,-0.27,-0.07,
213,-0.27,-0.085,
214,-0.27,-0.1,
215,-0.255,-0.09,
216,-0.25,-0.055,
217,-0.255,-0.055,
218,-0.26,-0.035,
219,-0.295,-0.035,
220,-0.315,-0.045,
221,-0.32,-0.025,
222,-0.325,-0.03,
223,-0.33,-0.035,
224,-0.34,-0.045,
225,-0.355,-0.07,
226,-0.38,-0.07,
227,-0.385,-0.06,
228,-0.38,-0.05,
229,-0.38,-0.055,
230,-0.395,-0.065,
231,-0.41,-0.075,
232,-0.405,-0.085,
233,-0.41,-0.075,
234,-0.405,-0.065,
235,-0.4,-0.075,
236,-0.39,-0.08,
237,-0.405,-0.08,
238,-0.42,-0.08,
239,-0.41,-0.065,
240,-0.4,-0.06,
241,-0.4,-0.06,
242,-0.395,-0.065,
243,-0.405,-0.06,
244,-0.41,-0.065,
245,-0.405,-0.06,
246,-0.4,-0.05,
247,-0.405,-0.05,
248,-0.405,-0.06,
249,-0.42,-0.075,
250,-0.445,-0.07,
251,-0.475,-0.055,
252,-0.54,-0.055,
253,-0.58,-0.085,
254,-0.59,-0.105,
255,-0.55,-0.11,
256,-0.485,-0.075,
257,-0.39,-0.035,
258,-0.21,0.01,
259,0.09,0.095,
260,0.47,0.235,
261,0.85,0.43,
262,1.19,0.67,
263,1.51,0.91,
264,1.75,1.16,
265,1.85,1.365,N
266,1.8,1.435,
267,1.585,1.38,
268,1.14,1.17,
269,0.62,0.82,
270,0.13,0.38,
271,-0.235,-0.03,
272,-0.44,-0.345,
273,-0.52,-0.475,
274,-0.525,-0.48,
275,-0.485,-0.41,
276,-0.405,-0.3,
277,-0.33,-0.195,
278,-0.295,-0.1,
279,-0.32,-0.04,
280,-0.36,-0.02,
281,-0.375,-0.01,
282,-0.375,-0.02,
283,-0.38,-0.035,
284,-0.38,-0.04,
285,-0.395,-0.045,
286,-0.42,-0.05,
287,-0.43,-0.045,
288,-0.435,-0.04,
289,-0.43,-0.055,
290,-0.435,-0.06,
291,-0.45,-0.06,
292,-0.465,-0.075,
293,-0.46,-0.055,
294,-0.45,-0.05,
295,-0.445,-0.05,
296,-0.46,-0.06,
297,-0.465,-0.06,
298,-0.485,-0.06,
299,-0.47,-0.05,
300,-0.455,-0.045,
301,-0.465,-0.055,
302,-0.46,-0.065,
303,-0.47,-0.06,
304,-0.475,-0.055,
305,-0.465,-0.045,
306,-0.475,-0.03,
307,-0.475,-0.045,
308,-0.47,-0.04,
309,-0.465,-0.05,
310,-0.485,-0.05,
311,-0.47,-0.035,
312,-0.46,-0.025,
313,-0.455,-0.02,
314,-0.44,-0.04,
315,-0.46,-0.04,
316,-0.47,-0.04,
317,-0.45,-0.035,
318,-0.43,-0.025,
319,-0.435,-0.02,
320,-0.435,-0.02,
321,-0.435,-0.02,
322,-0.44,-0.02,
323,-0.425,-0.005,
324,-0.41,0.005,
325,-0.395,-0.005,
326,-0.39,0.0,
327,-0.4,-0.005,
328,-0.4,0.0,
329,-0.39,0.005,
330,-0.37,0.035,
331,-0.345,0.03,
332,-0.34,0.035,
333,-0.34,0.025,
334,-0.345,0.03,
335,-0.32,0.055,
336,-0.29,0.08,
337,-0.275,0.06,
338,-0.26,0.065,
339,-0.255,0.075,
340,-0.24,0.08,
341,-0.21,0.11,
342,-0.185,0.14,
343,-0.16,0.135,
344,-0.135,0.15,
345,-0.13,0.155,
346,-0.125,0.155,
347,-0.1,0.18,
348,-0.07,0.2,
349,-0.04,0.205,
350,-0.04,0.21,
351,-0.025,0.22,
352,-0.005,0.225,
353,0.015,0.24,
354,0.035,0.265,
355,0.06,0.275,
356,0.055,0.26,
357,0.06,0.27,
358,0.07,0.275,
359,0.085,0.28,
360,0.105,0.3,
361,0.115,0.3,
362,0.11,0.3,
363,0.11,0.3,
364,0.095,0.295,
365,0.1,0.305,
366,0.095,0.32,
367,0.09,0.295,
368,0.085,0.285,
369,0.055,0.275,
370,0.045,0.26,
371,0.03,0.26,
372,0.015,0.26,
373,-0.01,0.245,
374,-0.03,0.22,
375,-0.065,0.205,
376,-0.09,0.19,
377,-0.115,0.17,
378,-0.13,0.17,
379,-0.15,0.14,
380,-0.18,0.115,
381,-0.215,0.1,
382,-0.24,0.085,
383,-0.25,0.065,
384,-0.26,0.07,
385,-0.27,0.04,
386,-0.275,0.03,
387,-0.305,0.01,
388,-0.315,-0.01,
389,-0.325,0.005,
390,-0.315,0.0,
391,-0.31,-0.005,
392,-0.31,-0.015,
393,-0.35,-0.03,
394,-0.345,-0.035,
395,-0.35,-0.03,
396,-0.33,-0.015,
397,-0.325,-0.035,
398,-0.33,-0.04,
399,-0.345,-0.055,
400,-0.35,-0.065,
401,-0.345,-0.05,
402,-0.35,-0.04,
403,-0.34,-0.045,
404,-0.345,-0.045,
405,-0.35,-0.05,
406,-0.355,-0.07,
407,-0.35,-0.055,
408,-0.33,-0.04,
409,-0.33,-0.05,
410,-0.33,-0.045,
411,-0.33,-0.05,
412,-0.335,-0.05,
413,-0.325,-0.04,
414,-0.32,-0.02,
415,-0.315,-0.04,
416,-0.315,-0.045,
417,-0.32,-0.045,
418,-0.33,-0.05,
419,-0.315,-0.045,
420,-0.31,-0.015,
421,-0.3,-0.005,
422,-0.3,-0.015,
423,-0.31,-0.04,
424,-0.32,-0.025,
425,-0.31,-0.03,
426,-0.305,-0.02,
427,-0.295,-0.025,
428,-0.295,-0.02,
429,-0.295,-0.025,
430,-0.315,-0.02,
431,-0.31,-0.01,
432,-0.295,-0.01,
433,-0.295,-0.015,
434,-0.3,-0.02,
435,-0.31,-0.025,
436,-0.305,-0.025,
437,-0.31,-0.02,
438,-0.305,-0.01,
439,-0.295,-0.02,
440,-0.3,-0.025,
441,-0.315,-0.04,
442,-0.325,-0.035,
443,-0.33,-0.02,
444,-0.315,-0.03,
445,-0.31,-0.035,
446,-0.315,-0.03,
447,-0.325,-0.05,
448,-0.335,-0.045,
449,-0.33,-0.04,
450,-0.325,-0.035,
451,-0.32,-0.04,
452,-0.335,-0.05,
453,-0.33,-0.065,
454,-0.34,-0.065,
455,-0.35,-0.07,
456,-0.345,-0.055,
457,-0.34,-0.06,
458,-0.34,-0.07,
459,-0.35,-0.075,
460,-0.355,-0.075,
461,-0.35,-0.075,
462,-0.345,-0.07,
463,-0.345,-0.08,
464,-0.345,-0.09,
465,-0.35,-0.1,
466,-0.375,-0.105,
467,-0.365,-0.1,
468,-0.36,-0.085,
469,-0.37,-0.09,
470,-0.365,-0.1,
471,-0.365,-0.11,
472,-0.38,-0.11,
473,-0.385,-0.115,
474,-0.375,-0.105,
475,-0.37,-0.105,
476,-0.375,-0.115,
477,-0.385,-0.11,
478,-0.4,-0.125,
479,-0.38,-0.115,
480,-0.385,-0.105,
481,-0.375,-0.11,
482,-0.37,-0.12,
483,-0.39,-0.13,
484,-0.4,-0.135,
485,-0.395,-0.125,
486,-0.375,-0.115,
487,-0.38,-0.115,
488,-0.385,-0.125,
489,-0.385,-0.135,
490,-0.395,-0.145,
491,-0.4,-0.13,
492,-0.395,-0.12,
493,-0.385,-0.115,
494,-0.38,-0.13,
495,-0.385,-0.135,
496,-0.385,-0.145,
497,-0.375,-0.13,
498,-0.36,-0.125,
499,-0.355,-0.125,
500,-0.335,-0.125,
501,-0.335,-0.13,
502,-0.315,-0.13,
503,-0.31,-0.125,
504,-0.31,-0.11,
505,-0.31,-0.11,
506,-0.315,-0.135,
507,-0.305,-0.12,
508,-0.31,-0.13,
509,-0.285,-0.115,
510,-0.27,-0.11,
511,-0.265,-0.11,
512,-0.26,-0.13,
513,-0.27,-0.135,
514,-0.275,-0.13,
515,-0.265,-0.12,
516,-0.25,-0.105,
517,-0.25,-0.12,
518,-0.265,-0.12,
519,-0.275,-0.13,
520,-0.295,-0.15,
521,-0.315,-0.145,
522,-0.31,-0.15,
523,-0.315,-0.16,
524,-0.315,-0.175,
525,-0.31,-0.185,
526,-0.32,-0.175,
527,-0.31,-0.145,
528,-0.3,-0.115,
529,-0.32,-0.11,
530,-0.34,-0.115,
531,-0.355,-0.115,
532,-0.375,-0.115,
533,-0.38,-0.12,
534,-0.38,-0.11,
535,-0.39,-0.12,
536,-0.405,-0.135,
537,-0.405,-0.145,
538,-0.42,-0.145,
539,-0.43,-0.15,
540,-0.425,-0.145,
541,-0.43,-0.145,
542,-0.435,-0.16,
543,-0.45,-0.155,
544,-0.45,-0.17,
545,-0.45,-0.155,
546,-0.45,-0.145,
547,-0.435,-0.16,
548,-0.44,-0.155,
549,-0.44,-0.155,
550,-0.46,-0.155,
551,-0.455,-0.145,
552,-0.45,-0.135,
553,-0.45,-0.145,
554,-0.44,-0.145,
555,-0.45,-0.16,
556,-0.455,-0.165,
557,-0.45,-0.155,
558,-0.435,-0.14,
559,-0.435,-0.145,
560,-0.445,-0.15,
561,-0.46,-0.15,
562,-0.51,-0.145,
563,-0.57,-0.155,
564,-0.62,-0.17,
565,-0.635,-0.185,
566,-0.59,-0.18,
567,-0.535,-0.16,
568,-0.455,-0.14,
569,-0.275,-0.075,
570,0.045,0.015,
571,0.445,0.185,
572,0.875,0.4,
573,1.23,0.64,
574,1.535,0.895,
575,1.75,1.16,N
576,1.84,1.335,
577,1.73,1.345,
578,1.365,1.175,
579,0.79,0.795,
580,0.195,0.295,
581,-0.26,-0.165,
582,-0.485,-0.465,
583,-0.55,-0.575,
584,-0.54,-0.555,
585,-0.505,-0.46,
586,-0.42,-0.34,
587,-0.355,-0.205,
588,-0.34,-0.11,
589,-0.375,-0.095,
590,-0.395,-0.11,
591,-0.415,-0.13,
592,-0.415,-0.135,
593,-0.415,-0.125,
594,-0.405,-0.12,
595,-0.43,-0.12,
596,-0.455,-0.14,
597,-0.475,-0.15,
598,-0.495,-0.165,
599,-0.495,-0.155,
600,-0.485,-0.14,
601,-0.485,-0.15,
602,-0.485,-0.15,
603,-0.51,-0.15,
604,-0.515,-0.155,
605,-0.52,-0.15,
606,-0.5,-0.14,
607,-0.495,-0.14,
608,-0.5,-0.135,
609,-0.49,-0.145,
610,-0.51,-0.145,
611,-0.5,-0.135,
612,-0.495,-0.12,
613,-0.485,-0.12,
614,-0.495,-0.135,
615,-0.495,-0.145,
616,-0.51,-0.155,
617,-0.5,-0.13,
618,-0.49,-0.12,
619,-0.48,-0.11,
620,-0.49,-0.105,
621,-0.475,-0.12,
622,-0.495,-0.125,
623,-0.47,-0.115,
624,-0.47,-0.1,
625,-0.47,-0.105,
626,-0.46,-0.11,
627,-0.465,-0.115,
628,-0.455,-0.1,
629,-0.445,-0.095,
630,-0.435,-0.075,
631,-0.41,-0.065,
632,-0.405,-0.095,
633,-0.41,-0.085,
634,-0.41,-0.075,
635,-0.4,-0.06,
636,-0.38,-0.04,
637,-0.355,-0.045,
638,-0.34,-0.035,
639,-0.33,-0.04,
640,-0.33,-0.03,
641,-0.295,-0.005,
642,-0.275,0.025,
643,-0.265,0.015,
644,-0.245,0.025,
645,-0.23,0.03,
646,-0.215,0.035,
647,-0.19,0.06,
648,-0.165,0.075,
649,-0.13,0.09,
650,-0.1,0.115,
651,-0.1,0.115,
652,-0.085,0.115,
653,-0.065,0.135,
654,-0.05,0.155,
655,-0.02,0.155,
656,-0.01,0.17,
657,-0.005,0.175,
658,-0.005,0.18,
659,0.025,0.2,
660,0.03,0.215,
661,0.07,0.215,
662,0.07,0.22,
663,0.06,0.23,
664,0.055,0.22,
665,0.07,0.235,
666,0.075,0.24,
667,0.075,0.235,
668,0.06,0.225,
669,0.045,0.21,
670,0.015,0.195,
671,0.015,0.2,
672,0.01,0.2,
673,-0.005,0.18,
674,-0.015,0.165,
675,-0.075,0.14,
676,-0.095,0.12,
677,-0.115,0.11,
678,-0.125,0.105,
679,-0.14,0.09,
680,-0.165,0.06,
681,-0.205,0.045,
682,-0.23,0.025,
683,-0.25,0.01,
684,-0.26,0.0,
685,-0.27,-0.02,
686,-0.28,-0.035,
687,-0.305,-0.055,
688,-0.32,-0.06,
689,-0.325,-0.06,
690,-0.32,-0.065,
691,-0.335,-0.065,
692,-0.33,-0.09,
693,-0.355,-0.11,
694,-0.36,-0.115,
695,-0.355,-0.115,
696,-0.345,-0.115,
697,-0.345,-0.11,
698,-0.35,-0.11,
699,-0.35,-0.125,
700,-0.355,-0.135,
701,-0.345,-0.115,
702,-0.34,-0.105,
703,-0.345,-0.105,
704,-0.345,-0.125,
705,-0.35,-0.14,
706,-0.355,-0.15,
707,-0.35,-0.125,
708,-0.34,-0.12,
709,-0.33,-0.11,
710,-0.335,-0.115,
711,-0.335,-0.12,
712,-0.345,-0.13,
713,-0.34,-0.11,
714,-0.335,-0.105,
715,-0.325,-0.11,
716,-0.33,-0.115,
717,-0.34,-0.13,
718,-0.34,-0.125,
719,-0.325,-0.105,
720,-0.33,-0.08,
721,-0.32,-0.1,
722,-0.315,-0.1,
723,-0.325,-0.095,
724,-0.335,-0.105,
725,-0.335,-0.095,
726,-0.325,-0.09,
727,-0.31,-0.095,
728,-0.31,-0.11,
729,-0.32,-0.115,
730,-0.335,-0.12,
731,-0.32,-0.11,
732,-0.32,-0.085,
733,-0.315,-0.095,
734,-0.31,-0.095,
735,-0.335,-0.11,
736,-0.325,-0.095,
737,-0.335,-0.09,
738,-0.315,-0.075,
739,-0.33,-0.09,
740,-0.32,-0.105,
741,-0.335,-0.115,
742,-0.335,-0.115,
743,-0.33,-0.1,
744,-0.325,-0.11,
745,-0.315,-0.105,
746,-0.315,-0.115,
747,-0.32,-0.125,
748,-0.345,-0.135,
749,-0.335,-0.125,
750,-0.33,-0.135,
751,-0.335,-0.145,
752,-0.335,-0.145,
753,-0.345,-0.15,
754,-0.35,-0.16,
755,-0.35,-0.145,
756,-0.355,-0.14,
757,-0.35,-0.15,
758,-0.355,-0.17,
759,-0.365,-0.175,
760,-0.375,-0.185,
761,-0.365,-0.165,
762,-0.37,-0.145,
763,-0.36,-0.165,
764,-0.365,-0.175,
765,-0.385,-0.19,
766,-0.385,-0.185,
767,-0.38,-0.185,
768,-0.37,-0.185,
769,-0.375,-0.19,
770,-0.375,-0.185,
771,-0.385,-0.21,
772,-0.395,-0.195,
773,-0.39,-0.195,
774,-0.385,-0.185,
775,-0.395,-0.2,
776,-0.395,-0.195,
777,-0.405,-0.205,
778,-0.41,-0.215,
779,-0.41,-0.2,
780,-0.405,-0.19,
781,-0.4,-0.2,
782,-0.4,-0.205,
783,-0.41,-0.215,
784,-0.41,-0.215,
785,-0.41,-0.2,
786,-0.405,-0.19,
787,-0.405,-0.205,
788,-0.405,-0.205,
789,-0.4,-0.215,
790,-0.4,-0.22,
791,-0.4,-0.205,
792,-0.385,-0.2,
793,-0.385,-0.205,
794,-0.38,-0.2,
795,-0.405,-0.21,
796,-0.405,-0.22,
797,-0.395,-0.21,
798,-0.395,-0.195,
799,-0.385,-0.21,
800,-0.365,-0.205,
801,-0.37,-0.205,
802,-0.35,-0.22,
803,-0.335,-0.195,
804,-0.33,-0.19,
805,-0.32,-0.185,
806,-0.315,-0.19,
807,-0.33,-0.19,
808,-0.335,-0.195,
809,-0.32,-0.185,
810,-0.31,-0.18,
811,-0.29,-0.19,
812,-0.29,-0.2,
813,-0.305,-0.21,
814,-0.315,-0.205,
815,-0.3,-0.195,
816,-0.28,-0.19,
817,-0.29,-0.195,
818,-0.29,-0.195,
819,-0.3,-0.21,
820,-0.32,-0.21,
821,-0.325,-0.205,
822,-0.345,-0.215,
823,-0.345,-0.23,
824,-0.34,-0.255,
825,-0.35,-0.255,
826,-0.345,-0.25,
827,-0.34,-0.245,
828,-0.32,-0.22,
829,-0.325,-0.2,
830,-0.34,-0.21,
831,-0.365,-0.205,
832,-0.385,-0.2,
833,-0.39,-0.195,
834,-0.38,-0.18,
835,-0.385,-0.195,
836,-0.395,-0.21,
837,-0.415,-0.22,
838,-0.43,-0.225,
839,-0.43,-0.21,
840,-0.445,-0.205,
841,-0.445,-0.215,
842,-0.455,-0.225,
843,-0.455,-0.24,
844,-0.455,-0.235,
845,-0.445,-0.22,
846,-0.435,-0.215,
847,-0.435,-0.215,
848,-0.45,-0.225,
849,-0.465,-0.23,
850,-0.47,-0.225,
851,-0.46,-0.23,
852,-0.45,-0.22,
853,-0.445,-0.225,
854,-0.44,-0.225,
855,-0.445,-0.215,
856,-0.455,-0.22,
857,-0.455,-0.24,
858,-0.45,-0.22,
859,-0.445,-0.23,
860,-0.45,-0.22,
861,-0.455,-0.225,
862,-0.475,-0.235,
863,-0.515,-0.22,
864,-0.57,-0.225,
865,-0.6,-0.255,
866,-0.585,-0.245,
867,-0.535,-0.225,
868,-0.47,-0.19,
869,-0.36,-0.15,
870,-0.17,-0.075,
871,0.17,0.05,
872,0.535,0.23,
873,0.9,0.445,
874,1.215,0.675,
875,1.505,0.9,
876,1.685,1.1,N
877,1.7,1.18,
878,1.505,1.125,
879,1.06,0.885,
880,0.49,0.485,
881,-0.025,0.045,
882,-0.365,-0.28,
883,-0.525,-0.5,
884,-0.575,-0.575,
885,-0.57,-0.54,
886,-0.48,-0.445,
887,-0.38,-0.31,
888,-0.335,-0.195,
889,-0.345,-0.155,
890,-0.395,-0.16,
891,-0.41,-0.185,
892,-0.43,-0.205,
893,-0.415,-0.2,
894,-0.42,-0.175,
895,-0.425,-0.18,
896,-0.44,-0.19,
897,-0.47,-0.205,
898,-0.475,-0.21,
899,-0.48,-0.205,
900,-0.475,-0.195,
901,-0.475,-0.195,
902,-0.48,-0.2,
903,-0.485,-0.215,
904,-0.495,-0.21,
905,-0.485,-0.2,
906,-0.485,-0.195,
907,-0.49,-0.215,
908,-0.48,-0.2,
909,-0.49,-0.21,
910,-0.485,-0.205,
911,-0.48,-0.19,
912,-0.47,-0.185,
913,-0.475,-0.195,
914,-0.485,-0.205,
915,-0.49,-0.22,
916,-0.49,-0.205,
917,-0.49,-0.185,
918,-0.475,-0.16,
919,-0.48,-0.18,
920,-0.47,-0.185,
921,-0.48,-0.195,
922,-0.49,-0.2,
923,-0.485,-0.2,
924,-0.455,-0.185,
925,-0.45,-0.18,
926,-0.45,-0.18,
927,-0.455,-0.18,
928,-0.475,-0.17,
929,-0.445,-0.16,
930,-0.435,-0.15,
931,-0.425,-0.16,
932,-0.425,-0.175,
933,-0.435,-0.17,
934,-0.43,-0.165,
935,-0.41,-0.15,
936,-0.4,-0.13,
937,-0.38,-0.13,
938,-0.375,-0.125,
939,-0.365,-0.13,
940,-0.355,-0.125,
941,-0.335,-0.11,
942,-0.315,-0.105,
943,-0.295,-0.095,
944,-0.29,-0.085,
945,-0.27,-0.07,
946,-0.26,-0.055,
947,-0.24,-0.05,
948,-0.215,-0.015,
949,-0.205,-0.015,
950,-0.18,-0.01,
951,-0.17,-0.01,
952,-0.16,-0.005,
953,-0.13,0.03,
954,-0.105,0.045,
955,-0.09,0.055,
956,-0.07,0.055,
957,-0.06,0.075,
958,-0.055,0.08,
959,-0.045,0.09,
960,-0.025,0.11,
961,0.005,0.115,
962,0.01,0.12,
963,0.01,0.13,
964,0.015,0.135,
965,0.035,0.155,
966,0.04,0.17,
967,0.055,0.17,
968,0.06,0.165,
969,0.035,0.155,
970,0.03,0.15,
971,0.045,0.15,
972,0.035,0.16,
973,0.04,0.16,
974,0.03,0.165,
975,0.005,0.155,
976,-0.01,0.125,
977,-0.03,0.115,
978,-0.04,0.12,
979,-0.055,0.105,
980,-0.095,0.065,
981,-0.105,0.05,
982,-0.135,0.035,
983,-0.155,0.03,
984,-0.17,0.03,
985,-0.175,0.01,
986,-0.2,-0.015,
987,-0.225,-0.04,
988,-0.26,-0.055,
989,-0.265,-0.065,
990,-0.27,-0.07,
991,-0.265,-0.095,
992,-0.285,-0.115,
993,-0.3,-0.13,
994,-0.31,-0.135,
995,-0.315,-0.13,
996,-0.305,-0.125,
997,-0.3,-0.14,
998,-0.315,-0.155,
999,-0.335,-0.165,
1000,-0.345,-0.155,
1001,-0.325,-0.15,
1002,-0.33,-0.17,
1003,-0.325,-0.16,
1004,-0.33,-0.185,
1005,-0.345,-0.17,
1006,-0.335,-0.17,
1007,-0.335,-0.17,
1008,-0.33,-0.165,
1009,-0.335,-0.175,
1010,-0.335,-0.175,
1011,-0.35,-0.19,
1012,-0.34,-0.175,
1013,-0.335,-0.18,
1014,-0.33,-0.18,
1015,-0.335,-0.175,
1016,-0.325,-0.18,
1017,-0.33,-0.175,
1018,-0.32,-0.175,
1019,-0.32,-0.16,
1020,-0.315,-0.16,
1021,-0.32,-0.165,
1022,-0.315,-0.175,
1023,-0.31,-0.18,
1024,-0.305,-0.155,
1025,-0.3,-0.155,
1026,-0.295,-0.145,
1027,-0.305,-0.15,
1028,-0.31,-0.15,
1029,-0.295,-0.15,
1030,-0.295,-0.155,
1031,-0.3,-0.13,
1032,-0.29,-0.145,
1033,-0.285,-0.14,
1034,-0.285,-0.15,
1035,-0.295,-0.135,
1036,-0.29,-0.135,
1037,-0.285,-0.125,
1038,-0.28,-0.13,
1039,-0.28,-0.135,
1040,-0.285,-0.145,
1041,-0.295,-0.135,
1042,-0.285,-0.125,
1043,-0.285,-0.11,
1044,-0.29,-0.13,
1045,-0.28,-0.135,
1046,-0.285,-0.145,
1047,-0.29,-0.13,
1048,-0.295,-0.135,
1049,-0.275,-0.12,
1050,-0.285,-0.13,
1051,-0.295,-0.14,
1052,-0.295,-0.14,
1053,-0.3,-0.155,
1054,-0.3,-0.15,
1055,-0.295,-0.14,
1056,-0.295,-0.145,
1057,-0.305,-0.15,
1058,-0.32,-0.165,
1059,-0.32,-0.16,
1060,-0.32,-0.16,
1061,-0.31,-0.15,
1062,-0.31,-0.165,
1063,-0.32,-0.165,
1064,-0.325,-0.175,
1065,-0.34,-0.185,
1066,-0.33,-0.17,
1067,-0.33,-0.16,
1068,-0.335,-0.175,
1069,-0.345,-0.195,
1070,-0.35,-0.195,
1071,-0.355,-0.19,
1072,-0.355,-0.195,
1073,-0.345,-0.19,
1074,-0.345,-0.2,
1075,-0.35,-0.22,
1076,-0.355,-0.22,
1077,-0.375,-0.215,
1078,-0.365,-0.215,
1079,-0.36,-0.21,
1080,-0.355,-0.205,
1081,-0.36,-0.22,
1082,-0.365,-0.22,
1083,-0.375,-0.225,
1084,-0.37,-0.215,
1085,-0.36,-0.2,
1086,-0.36,-0.215,
1087,-0.37,-0.215,
1088,-0.375,-0.225,
1089,-0.38,-0.235,
1090,-0.38,-0.225,
1091,-0.37,-0.215,
1092,-0.365,-0.22,
1093,-0.365,-0.22,
1094,-0.375,-0.225,
1095,-0.38,-0.245,
1096,-0.38,-0.23,
1097,-0.37,-0.215,
1098,-0.355,-0.225,
1099,-0.355,-0.235,
1100,-0.375,-0.23,
1101,-0.38,-0.23,
1102,-0.37,-0.225,
1103,-0.37,-0.225,
1104,-0.355,-0.235,
1105,-0.355,-0.23,
1106,-0.34,-0.245,
1107,-0.345,-0.24,
1108,-0.33,-0.235,
1109,-0.3,-0.215,
1110,-0.295,-0.225,
1111,-0.29,-0.23,
1112,-0.3,-0.235,
1113,-0.3,-0.245,
1114,-0.29,-0.215,
1115,-0.285,-0.215,
1116,-0.27,-0.215,
1117,-0.255,-0.215,
1118,-0.26,-0.225,
1119,-0.27,-0.235,
1120,-0.275,-0.22,
1121,-0.25,-0.215,
1122,-0.235,-0.23,
1123,-0.235,-0.235,
1124,-0.25,-0.24,
1125,-0.265,-0.24,
1126,-0.28,-0.245,
1127,-0.28,-0.24,
1128,-0.29,-0.255,
1129,-0.31,-0.285,
1130,-0.315,-0.285,
1131,-0.315,-0.29,
1132,-0.3,-0.275,
1133,-0.285,-0.255,
1134,-0.28,-0.235,
1135,-0.305,-0.23,
1136,-0.315,-0.225,
1137,-0.34,-0.225,
1138,-0.35,-0.225,
1139,-0.345,-0.22,
1140,-0.355,-0.235,
1141,-0.38,-0.25,
1142,-0.395,-0.255,
1143,-0.4,-0.24,
1144,-0.385,-0.24,
1145,-0.395,-0.245,
1146,-0.4,-0.25,
1147,-0.405,-0.265,
1148,-0.42,-0.265,
1149,-0.435,-0.27,
1150,-0.415,-0.255,
1151,-0.42,-0.25,
1152,-0.425,-0.25,
1153,-0.425,-0.26,
1154,-0.43,-0.26,
1155,-0.43,-0.265,
1156,-0.43,-0.25,
1157,-0.43,-0.245,
1158,-0.415,-0.245,
1159,-0.425,-0.255,
1160,-0.435,-0.255,
1161,-0.435,-0.26,
1162,-0.425,-0.245,
1163,-0.42,-0.235,
1164,-0.425,-0.25,
1165,-0.42,-0.25,
1166,-0.435,-0.25,
1167,-0.465,-0.245,
1168,-0.505,-0.25,
1169,-0.555,-0.245,
1170,-0.585,-0.275,
1171,-0.555,-0.26,
1172,-0.495,-0.24,
1173,-0.41,-0.19,
1174,-0.23,-0.125,
1175,0.075,-0.015,
1176,0.485,0.15,
1177,0.9,0.37,
1178,1.27,0.6,
1179,1.565,0.85,
1180,1.77,1.06,N
1181,1.82,1.18,
1182,1.655,1.145,
1183,1.245,0.93,
1184,0.66,0.525,
1185,0.085,0.045,
1186,-0.335,-0.355,
1187,-0.54,-0.565,
1188,-0.56,-0.61,
1189,-0.515,-0.555,
1190,-0.425,-0.465,
1191,-0.35,-0.33,
1192,-0.325,-0.225,
1193,-0.33,-0.175,
1194,-0.365,-0.175,
1195,-0.39,-0.19,
1196,-0.4,-0.225,
1197,-0.395,-0.235,
1198,-0.41,-0.21,
1199,-0.42,-0.2,
1200,-0.435,-0.22,
1201,-0.44,-0.23,
1202,-0.45,-0.24,
1203,-0.455,-0.25,
1204,-0.46,-0.24,
1205,-0.455,-0.23,
1206,-0.45,-0.23,
1207,-0.46,-0.24,
1208,-0.48,-0.245,
1209,-0.48,-0.235,
1210,-0.465,-0.22,
1211,-0.465,-0.21,
1212,-0.46,-0.215,
1213,-0.465,-0.22,
1214,-0.465,-0.225,
1215,-0.47,-0.225,
1216,-0.465,-0.215,
1217,-0.47,-0.215,
1218,-0.47,-0.22,
1219,-0.47,-0.22,
1220,-0.47,-0.215,
1221,-0.48,-0.215,
1222,-0.47,-0.2,
1223,-0.45,-0.185,
1224,-0.45,-0.2,
1225,-0.455,-0.2,
1226,-0.455,-0.22,
1227,-0.455,-0.205,
1228,-0.46,-0.2,
1229,-0.445,-0.185,
1230,-0.43,-0.195,
1231,-0.435,-0.195,
1232,-0.425,-0.19,
1233,-0.43,-0.195,
1234,-0.425,-0.18,
1235,-0.405,-0.165,
1236,-0.4,-0.17,
1237,-0.385,-0.165,
1238,-0.385,-0.175,
1239,-0.375,-0.16,
1240,-0.375,-0.15,
1241,-0.365,-0.155,
1242,-0.34,-0.135,
1243,-0.335,-0.135,
1244,-0.325,-0.135,
1245,-0.315,-0.125,
1246,-0.29,-0.105,
1247,-0.265,-0.08,
1248,-0.245,-0.07,
1249,-0.22,-0.08,
1250,-0.215,-0.07,
1251,-0.21,-0.06,
1252,-0.185,-0.04,
1253,-0.155,-0.025,
1254,-0.13,-0.015,
1255,-0.11,-0.015,
1256,-0.09,-0.005,
1257,-0.09,0.01,
1258,-0.06,0.025,
1259,-0.025,0.055,
1260,-0.01,0.055,
1261,-0.005,0.065,
1262,0.015,0.08,
1263,0.01,0.08,
1264,0.045,0.105,
1265,0.075,0.115,
1266,0.08,0.115,
1267,0.1,0.13,
1268,0.085,0.105,
1269,0.095,0.12,
1270,0.11,0.13,
1271,0.125,0.155,
1272,0.12,0.15,
1273,0.135,0.145,
1274,0.12,0.12,
1275,0.095,0.125,
1276,0.095,0.125,
1277,0.105,0.13,
1278,0.1,0.125,
1279,0.085,0.115,
1280,0.055,0.09,
1281,0.015,0.08,
1282,0.01,0.075,
1283,-0.005,0.06,
1284,-0.02,0.045,
1285,-0.055,0.025,
1286,-0.075,0.015,
1287,-0.115,-0.01,
1288,-0.125,-0.005,
1289,-0.14,-0.03,
1290,-0.155,-0.045,
1291,-0.18,-0.065,
1292,-0.21,-0.095,
1293,-0.235,-0.105,
1294,-0.235,-0.11,
1295,-0.25,-0.125,
1296,-0.25,-0.125,
1297,-0.27,-0.16,
1298,-0.28,-0.17,
1299,-0.29,-0.18,
1300,-0.315,-0.175,
1301,-0.3,-0.165,
1302,-0.305,-0.17,
1303,-0.305,-0.19,
1304,-0.315,-0.21,
1305,-0.33,-0.215,
1306,-0.33,-0.195,
1307,-0.32,-0.2,
1308,-0.325,-0.205,
1309,-0.315,-0.205,
1310,-0.335,-0.225,
1311,-0.345,-0.215,
1312,-0.33,-0.21,
1313,-0.32,-0.205,
1314,-0.315,-0.205,
1315,-0.325,-0.215,
1316,-0.33,-0.23,
1317,-0.34,-0.225,
1318,-0.32,-0.21,
1319,-0.315,-0.21,
1320,-0.305,-0.205,
1321,-0.31,-0.215,
1322,-0.315,-0.215,
1323,-0.32,-0.215,
1324,-0.3,-0.205,
1325,-0.295,-0.2,
1326,-0.29,-0.195,
1327,-0.3,-0.195,
1328,-0.31,-0.2,
1329,-0.31,-0.2,
1330,-0.3,-0.18,
1331,-0.29,-0.18,
1332,-0.29,-0.17,
1333,-0.285,-0.185,
1334,-0.29,-0.185,
1335,-0.295,-0.18,
1336,-0.285,-0.18,
1337,-0.27,-0.16,
1338,-0.275,-0.165,
1339,-0.275,-0.165,
1340,-0.28,-0.18,
1341,-0.29,-0.175,
1342,-0.29,-0.17,
1343,-0.28,-0.155,
1344,-0.28,-0.165,
1345,-0.27,-0.16,
1346,-0.28,-0.185,
1347,-0.295,-0.185,
1348,-0.29,-0.175,
1349,-0.27,-0.17,
1350,-0.285,-0.165,
1351,-0.285,-0.185,
1352,-0.29,-0.205,
1353,-0.3,-0.195,
1354,-0.285,-0.185,
1355,-0.29,-0.17,
1356,-0.295,-0.175,
1357,-0.305,-0.19,
1358,-0.305,-0.195,
1359,-0.315,-0.2,
1360,-0.3,-0.185,
1361,-0.3,-0.205,
1362,-0.3,-0.19,
1363,-0.31,-0.205,
1364,-0.315,-0.215,
1365,-0.335,-0.22,
1366,-0.32,-0.22,
1367,-0.31,-0.2,
1368,-0.315,-0.215,
1369,-0.325,-0.23,
1370,-0.325,-0.23,
1371,-0.34,-0.23,
1372,-0.335,-0.23,
1373,-0.335,-0.23,
1374,-0.33,-0.23,
1375,-0.34,-0.25,
1376,-0.345,-0.255,
1377,-0.35,-0.25,
1378,-0.345,-0.235,
1379,-0.335,-0.225,
1380,-0.335,-0.245,
1381,-0.345,-0.25,
1382,-0.375,-0.26,
1383,-0.37,-0.26,
1384,-0.36,-0.26,
1385,-0.345,-0.245,
1386,-0.35,-0.25,
1387,-0.355,-0.265,
1388,-0.365,-0.275,
1389,-0.38,-0.27,
1390,-0.37,-0.25,
1391,-0.365,-0.25,
1392,-0.36,-0.25,
1393,-0.37,-0.255,
1394,-0.37,-0.26,
1395,-0.375,-0.26,
1396,-0.37,-0.26,
1397,-0.37,-0.245,
1398,-0.365,-0.245,
1399,-0.37,-0.26,
1400,-0.38,-0.27,
1401,-0.38,-0.255,
1402,-0.375,-0.26,
1403,-0.365,-0.24,
1404,-0.36,-0.255,
1405,-0.365,-0.26,
1406,-0.355,-0.28,
1407,-0.355,-0.27,
1408,-0.355,-0.25,
1409,-0.335,-0.245,
1410,-0.31,-0.24,
1411,-0.31,-0.255,
1412,-0.3,-0.255,
1413,-0.295,-0.26,
1414,-0.295,-0.245,
1415,-0.28,-0.225,
1416,-0.275,-0.23,
1417,-0.27,-0.24,
1418,-0.27,-0.245,
1419,-0.265,-0.245,
1420,-0.26,-0.23,
1421,-0.255,-0.24,
1422,-0.255,-0.25,
1423,-0.245,-0.24,
1424,-0.24,-0.25,
1425,-0.255,-0.25,
1426,-0.245,-0.235,
1427,-0.25,-0.23,
1428,-0.26,-0.255,
1429,-0.275,-0.25,
1430,-0.29,-0.275,
1431,-0.31,-0.28,
1432,-0.32,-0.285,
1433,-0.305,-0.275,
1434,-0.29,-0.285,
1435,-0.285,-0.295,
1436,-0.29,-0.285,
1437,-0.305,-0.25,
1438,-0.31,-0.225,
1439,-0.325,-0.215,
1440,-0.335,-0.23,
1441,-0.335,-0.23,
1442,-0.36,-0.24,
1443,-0.38,-0.25,
1444,-0.385,-0.245,
1445,-0.38,-0.255,
1446,-0.39,-0.255,
1447,-0.405,-0.26,
1448,-0.42,-0.275,
1449,-0.43,-0.275,
1450,-0.425,-0.275,
1451,-0.42,-0.26,
1452,-0.43,-0.28,
1453,-0.425,-0.28,
1454,-0.44,-0.29,
1455,-0.435,-0.275,
1456,-0.425,-0.265,
1457,-0.43,-0.265,
1458,-0.425,-0.255,
1459,-0.425,-0.265,
1460,-0.43,-0.28,
1461,-0.44,-0.275,
1462,-0.445,-0.27,
1463,-0.42,-0.255,
1464,-0.415,-0.26,
1465,-0.425,-0.26,
1466,-0.425,-0.26,
1467,-0.445,-0.265,
1468,-0.45,-0.255,
1469,-0.48,-0.255,
1470,-0.53,-0.27,
1471,-0.58,-0.3,
1472,-0.59,-0.31,
1473,-0.565,-0.295,
1474,-0.48,-0.255,
1475,-0.36,-0.2,
1476,-0.15,-0.145,
1477,0.18,-0.04,
1478,0.59,0.15,
1479,0.985,0.395,
1480,1.37,0.665,
1481,1.665,0.925,
1482,1.82,1.16,N
1483,1.825,1.275,
1484,1.655,1.245,
1485,1.215,1.005,
1486,0.64,0.605,
1487,0.09,0.12,
1488,-0.28,-0.31,
1489,-0.48,-0.585,
1490,-0.53,-0.665,
1491,-0.505,-0.605,
1492,-0.425,-0.5,
1493,-0.345,-0.37,
1494,-0.295,-0.275,
1495,-0.315,-0.21,
1496,-0.37,-0.2,
1497,-0.4,-0.21,
1498,-0.39,-0.22,
1499,-0.385,-0.22,
1500,-0.385,-0.22,
1501,-0.41,-0.24,
1502,-0.43,-0.24,
1503,-0.445,-0.25,
1504,-0.445,-0.25,
1505,-0.435,-0.25,
1506,-0.435,-0.23,
1507,-0.455,-0.255,
1508,-0.465,-0.26,
1509,-0.47,-0.255,
1510,-0.465,-0.25,
1511,-0.455,-0.235,
1512,-0.455,-0.24,
1513,-0.455,-0.24,
1514,-0.465,-0.245,
1515,-0.48,-0.25,
1516,-0.475,-0.23,
1517,-0.465,-0.22,
1518,-0.465,-0.225,
1519,-0.465,-0.245,
1520,-0.46,-0.255,
1521,-0.475,-0.24,
1522,-0.47,-0.225,
1523,-0.465,-0.21,
1524,-0.45,-0.23,
1525,-0.45,-0.215,
1526,-0.46,-0.235,
1527,-0.47,-0.225,
1528,-0.455,-0.23,
1529,-0.445,-0.21,
1530,-0.44,-0.215,
1531,-0.435,-0.21,
1532,-0.435,-0.215,
1533,-0.44,-0.215,
1534,-0.445,-0.2,
1535,-0.43,-0.19,
1536,-0.41,-0.195,
1537,-0.41,-0.2,
1538,-0.41,-0.19,
1539,-0.405,-0.19,
1540,-0.4,-0.185,
1541,-0.38,-0.155,
1542,-0.365,-0.165,
1543,-0.36,-0.165,
1544,-0.355,-0.17,
1545,-0.345,-0.155,
1546,-0.33,-0.145,
1547,-0.305,-0.13,
1548,-0.3,-0.11,
1549,-0.285,-0.115,
1550,-0.27,-0.11,
1551,-0.26,-0.1,
1552,-0.23,-0.075,
1553,-0.22,-0.065,
1554,-0.2,-0.045,
1555,-0.185,-0.05,
1556,-0.16,-0.035,
1557,-0.15,-0.03,
1558,-0.12,-0.025,
1559,-0.095,0.0,
1560,-0.075,0.025,
1561,-0.05,0.025,
1562,-0.035,0.035,
1563,-0.035,0.055,
1564,-0.005,0.07,
1565,0.025,0.085,
1566,0.035,0.095,
1567,0.05,0.085,
1568,0.045,0.095,
1569,0.06,0.105,
1570,0.07,0.105,
1571,0.09,0.135,
1572,0.105,0.135,
1573,0.115,0.14,
1574,0.12,0.13,
1575,0.11,0.135,
1576,0.12,0.15,
1577,0.12,0.155,
1578,0.13,0.155,
1579,0.13,0.135,
1580,0.105,0.14,
1581,0.085,0.13,
1582,0.09,0.145,
1583,0.08,0.12,
1584,0.06,0.115,
1585,0.035,0.095,
1586,-0.005,0.075,
1587,-0.025,0.07,
1588,-0.025,0.06,
1589,-0.045,0.035,
1590,-0.065,0.025,
1591,-0.105,-0.01,
1592,-0.145,-0.03,
1593,-0.165,-0.05,
1594,-0.18,-0.055,
1595,-0.195,-0.07,
1596,-0.22,-0.085,
1597,-0.24,-0.105,
1598,-0.25,-0.13,
1599,-0.27,-0.14,
1600,-0.28,-0.145,
1601,-0.28,-0.155,
1602,-0.275,-0.16,
1603,-0.285,-0.17,
1604,-0.305,-0.185,
1605,-0.32,-0.195,
1606,-0.32,-0.185,
1607,-0.31,-0.195,
1608,-0.315,-0.205,
1609,-0.31,-0.215,
1610,-0.325,-0.225,
1611,-0.35,-0.235,
1612,-0.35,-0.22,
1613,-0.33,-0.21,
1614,-0.325,-0.205,
1615,-0.325,-0.21,
1616,-0.34,-0.225,
1617,-0.345,-0.235,
1618,-0.33,-0.225,
1619,-0.33,-0.215,
1620,-0.33,-0.2,
1621,-0.32,-0.225,
1622,-0.34,-0.23,
1623,-0.34,-0.22,
1624,-0.325,-0.22,
1625,-0.305,-0.215,
1626,-0.315,-0.21,
1627,-0.305,-0.215,
1628,-0.31,-0.22,
1629,-0.315,-0.21,
1630,-0.305,-0.21,
1631,-0.3,-0.19,
1632,-0.295,-0.195,
1633,-0.3,-0.19,
1634,-0.3,-0.195,
1635,-0.31,-0.205,
1636,-0.3,-0.19,
1637,-0.29,-0.18,
1638,-0.275,-0.175,
1639,-0.285,-0.18,
1640,-0.295,-0.19,
1641,-0.3,-0.18,
1642,-0.295,-0.18,
1643,-0.27,-0.16,
1644,-0.275,-0.17,
1645,-0.275,-0.18,
1646,-0.295,-0.185,
1647,-0.295,-0.195,
1648,-0.29,-0.18,
1649,-0.275,-0.19,
1650,-0.285,-0.18,
1651,-0.27,-0.185,
1652,-0.29,-0.2,
1653,-0.29,-0.2,
1654,-0.285,-0.195,
1655,-0.275,-0.19,
1656,-0.27,-0.195,
1657,-0.285,-0.195,
1658,-0.29,-0.215,
1659,-0.305,-0.2,
1660,-0.295,-0.2,
1661,-0.295,-0.195,
1662,-0.29,-0.19,
1663,-0.29,-0.2,
1664,-0.305,-0.22,
1665,-0.31,-0.23,
1666,-0.31,-0.215,
1667,-0.3,-0.205,
1668,-0.315,-0.21,
1669,-0.31,-0.215,
1670,-0.32,-0.225,
1671,-0.33,-0.225,
1672,-0.32,-0.22,
1673,-0.33,-0.2,
1674,-0.31,-0.215,
1675,-0.325,-0.22,
1676,-0.335,-0.225,
1677,-0.345,-0.24,
1678,-0.335,-0.24,
1679,-0.34,-0.22,
1680,-0.33,-0.22,
1681,-0.34,-0.245,
1682,-0.35,-0.24,
1683,-0.355,-0.245,
1684,-0.355,-0.24,
1685,-0.335,-0.23,
1686,-0.335,-0.24,
1687,-0.345,-0.255,
1688,-0.35,-0.26,
1689,-0.365,-0.26,
1690,-0.365,-0.24,
1691,-0.365,-0.26,
1692,-0.345,-0.255,
1693,-0.36,-0.27,
1694,-0.36,-0.285,
1695,-0.365,-0.275,
1696,-0.37,-0.27,
1697,-0.365,-0.265,
1698,-0.35,-0.275,
1699,-0.35,-0.285,
1700,-0.37,-0.275,
1701,-0.37,-0.275,
1702,-0.36,-0.265,
1703,-0.345,-0.26,
1704,-0.35,-0.245,
1705,-0.36,-0.265,
1706,-0.37,-0.275,
1707,-0.375,-0.27,
1708,-0.36,-0.27,
1709,-0.36,-0.26,
1710,-0.35,-0.265,
1711,-0.345,-0.275,
1712,-0.355,-0.285,
1713,-0.35,-0.275,
1714,-0.33,-0.255,
1715,-0.315,-0.255,
1716,-0.29,-0.25,
1717,-0.29,-0.265,
1718,-0.295,-0.27,
1719,-0.295,-0.265,
1720,-0.29,-0.245,
1721,-0.27,-0.25,
1722,-0.26,-0.25,
1723,-0.255,-0.26,
1724,-0.265,-0.25,
1725,-0.27,-0.255,
1726,-0.255,-0.25,
1727,-0.245,-0.235,
1728,-0.245,-0.245,
1729,-0.25,-0.25,
1730,-0.245,-0.255,
1731,-0.25,-0.245,
1732,-0.24,-0.24,
1733,-0.24,-0.23,
1734,-0.25,-0.245,
1735,-0.27,-0.25,
1736,-0.275,-0.27,
1737,-0.295,-0.285,
1738,-0.31,-0.285,
1739,-0.3,-0.29,
1740,-0.28,-0.3,
1741,-0.28,-0.295,
1742,-0.28,-0.29,
1743,-0.28,-0.28,
1744,-0.29,-0.235,
1745,-0.3,-0.225,
1746,-0.31,-0.22,
1747,-0.325,-0.23,
1748,-0.35,-0.25,
1749,-0.35,-0.235,
1750,-0.365,-0.24,
1751,-0.365,-0.23,
1752,-0.37,-0.25,
1753,-0.38,-0.26,
1754,-0.38,-0.28,
1755,-0.4,-0.26,
1756,-0.405,-0.255,
1757,-0.415,-0.255,
1758,-0.415,-0.265,
1759,-0.42,-0.27,
1760,-0.425,-0.28,
1761,-0.445,-0.285,
1762,-0.44,-0.275,
1763,-0.42,-0.255,
1764,-0.425,-0.265,
1765,-0.425,-0.28,
1766,-0.43,-0.27,
1767,-0.43,-0.28,
1768,-0.42,-0.255,
1769,-0.41,-0.26,
1770,-0.415,-0.26,
1771,-0.435,-0.265,
1772,-0.415,-0.275,
1773,-0.42,-0.285,
1774,-0.415,-0.275,
1775,-0.415,-0.255,
1776,-0.41,-0.255,
1777,-0.41,-0.26,
1778,-0.42,-0.265,
1779,-0.45,-0.265,
1780,-0.47,-0.26,
1781,-0.53,-0.265,
1782,-0.58,-0.28,
1783,-0.595,-0.305,
1784,-0.56,-0.3,
1785,-0.515,-0.27,
1786,-0.43,-0.22,
1787,-0.285,-0.175,
1788,-0.055,-0.125,
1789,0.27,-0.015,
1790,0.6,0.145,
1791,0.935,0.365,
1792,1.265,0.59,
1793,1.575,0.84,
1794,1.785,1.075,
1795,1.875,1.255,N
1796,1.8,1.305,
1797,1.555,1.21,
1798,1.09,0.965,
1799,0.55,0.57,
1800,0.08,0.115,
1801,-0.27,-0.295,
1802,-0.44,-0.56,
1803,-0.51,-0.675,
1804,-0.51,-0.66,
1805,-0.485,-0.585,
1806,-0.41,-0.505,
1807,-0.345,-0.395,
1808,-0.31,-0.305,
1809,-0.325,-0.255,
1810,-0.345,-0.215,
1811,-0.355,-0.19,
1812,-0.375,-0.215,
1813,-0.375,-0.23,
1814,-0.395,-0.235,
1815,-0.41,-0.23,
1816,-0.395,-0.215,
1817,-0.4,-0.215,
1818,-0.42,-0.24,
1819,-0.435,-0.245,
1820,-0.445,-0.25,
1821,-0.455,-0.25,
1822,-0.46,-0.245,
1823,-0.445,-0.225,
1824,-0.46,-0.23,
1825,-0.45,-0.245,
1826,-0.465,-0.25,
1827,-0.47,-0.255,
1828,-0.46,-0.23,
1829,-0.44,-0.22,
1830,-0.45,-0.235,
1831,-0.46,-0.235,
1832,-0.46,-0.245,
1833,-0.485,-0.255,
1834,-0.465,-0.24,
1835,-0.465,-0.235,
1836,-0.455,-0.235,
1837,-0.46,-0.225,
1838,-0.47,-0.25,
1839,-0.47,-0.245,
1840,-0.455,-0.23,
1841,-0.46,-0.215,
1842,-0.455,-0.215,
1843,-0.445,-0.22,
1844,-0.45,-0.215,
1845,-0.465,-0.22,
1846,-0.445,-0.215,
1847,-0.435,-0.205,
1848,-0.42,-0.215,
1849,-0.43,-0.2,
1850,-0.43,-0.205,
1851,-0.445,-0.205,
1852,-0.435,-0.19,
1853,-0.415,-0.18,
1854,-0.41,-0.18,
1855,-0.41,-0.185,
1856,-0.415,-0.185,
1857,-0.405,-0.19,
1858,-0.41,-0.175,
1859,-0.39,-0.165,
1860,-0.38,-0.175,
1861,-0.365,-0.185,
1862,-0.365,-0.175,
1863,-0.36,-0.165,
1864,-0.36,-0.16,
1865,-0.325,-0.14,
1866,-0.315,-0.13,
1867,-0.295,-0.145,
1868,-0.29,-0.13,
1869,-0.29,-0.12,
1870,-0.275,-0.1,
1871,-0.25,-0.075,
1872,-0.225,-0.07,
1873,-0.205,-0.075,
1874,-0.205,-0.07,
1875,-0.185,-0.05,
1876,-0.17,-0.03,
1877,-0.14,-0.015,
1878,-0.125,-0.005,
1879,-0.12,0.005,
1880,-0.1,-0.005,
1881,-0.095,0.015,
1882,-0.075,0.025,
1883,-0.04,0.05,
1884,-0.02,0.06,
1885,-0.005,0.065,
1886,-0.005,0.055,
1887,-0.005,0.06,
1888,0.02,0.08,
1889,0.045,0.105,
1890,0.07,0.1,
1891,0.08,0.105,
1892,0.075,0.115,
1893,0.085,0.125,
1894,0.105,0.15,
1895,0.12,0.165,
1896,0.13,0.155,
1897,0.125,0.155,
1898,0.115,0.145,
1899,0.115,0.14,
1900,0.125,0.145,
1901,0.125,0.17,
1902,0.135,0.175,
1903,0.115,0.16,
1904,0.095,0.155,
1905,0.08,0.145,
1906,0.07,0.145,
1907,0.065,0.14,
1908,0.045,0.125,
1909,0.015,0.11,
1910,0.0,0.09,
1911,-0.045,0.08,
1912,-0.04,0.07,
1913,-0.07,0.06,
1914,-0.08,0.05,
1915,-0.1,0.02,
1916,-0.14,-0.01,
1917,-0.16,-0.015,
1918,-0.185,-0.03,
1919,-0.185,-0.03,
1920,-0.195,-0.04,
1921,-0.21,-0.075,
1922,-0.225,-0.085,
1923,-0.255,-0.095,
1924,-0.245,-0.105,
1925,-0.26,-0.11,
1926,-0.265,-0.12,
1927,-0.275,-0.135,
1928,-0.285,-0.145,
1929,-0.305,-0.16,
1930,-0.29,-0.16,
1931,-0.295,-0.145,
1932,-0.285,-0.16,
1933,-0.305,-0.175,
1934,-0.325,-0.185,
1935,-0.325,-0.195,
1936,-0.33,-0.19,
1937,-0.31,-0.19,
1938,-0.315,-0.19,
1939,-0.31,-0.205,
1940,-0.325,-0.21,
1941,-0.325,-0.205,
1942,-0.325,-0.2,
1943,-0.32,-0.18,
1944,-0.325,-0.18,
1945,-0.325,-0.185,
1946,-0.32,-0.195,
1947,-0.32,-0.18,
1948,-0.31,-0.175,
1949,-0.3,-0.17,
1950,-0.295,-0.16,
1951,-0.315,-0.17,
1952,-0.3,-0.19,
1953,-0.31,-0.195,
1954,-0.31,-0.18,
1955,-0.3,-0.18,
1956,-0.29,-0.17,
1957,-0.29,-0.18,
1958,-0.29,-0.175,
1959,-0.305,-0.185,
1960,-0.285,-0.165,
1961,-0.28,-0.14,
1962,-0.275,-0.155,
1963,-0.275,-0.16,
1964,-0.275,-0.165,
1965,-0.28,-0.16,
1966,-0.285,-0.155,
1967,-0.27,-0.15,
1968,-0.27,-0.14,
1969,-0.27,-0.155,
1970,-0.275,-0.17,
1971,-0.28,-0.15,
1972,-0.27,-0.14,
1973,-0.27,-0.13,
1974,-0.27,-0.13,
1975,-0.27,-0.145,
1976,-0.27,-0.155,
1977,-0.28,-0.155,
1978,-0.275,-0.145,
1979,-0.265,-0.125,
1980,-0.265,-0.125,
1981,-0.27,-0.145,
1982,-0.28,-0.145,
1983,-0.285,-0.145,
1984,-0.28,-0.14,
1985,-0.285,-0.14,
1986,-0.285,-0.155,
1987,-0.28,-0.155,
1988,-0.29,-0.175,
1989,-0.3,-0.16,
1990,-0.295,-0.16,
1991,-0.28,-0.145,
1992,-0.28,-0.15,
1993,-0.275,-0.15,
1994,-0.3,-0.165,
1995,-0.31,-0.155,
1996,-0.3,-0.16,
1997,-0.295,-0.16,
1998,-0.3,-0.165,
1999,-0.3,-0.195,
2000,-0.31,-0.19,
2001,-0.32,-0.175,
2002,-0.32,-0.155,
2003,-0.31,-0.165,
2004,-0.305,-0.165,
2005,-0.32,-0.185,
2006,-0.315,-0.195,
2007,-0.34,-0.205,
2008,-0.33,-0.2,
2009,-0.32,-0.185,
2010,-0.325,-0.2,
2011,-0.33,-0.19,
2012,-0.33,-0.2,
2013,-0.34,-0.205,
2014,-0.335,-0.205,
2015,-0.34,-0.185,
2016,-0.33,-0.19,
2017,-0.34,-0.21,
2018,-0.34,-0.22,
2019,-0.365,-0.23,
2020,-0.35,-0.205,
2021,-0.355,-0.205,
2022,-0.345,-0.21,
2023,-0.355,-0.235,
2024,-0.365,-0.225,
2025,-0.36,-0.245,
2026,-0.365,-0.225,
2027,-0.36,-0.215,
2028,-0.355,-0.22,
2029,-0.355,-0.235,
2030,-0.36,-0.24,
2031,-0.375,-0.24,
2032,-0.365,-0.23,
2033,-0.37,-0.215,
2034,-0.36,-0.22,
2035,-0.355,-0.225,
2036,-0.37,-0.225,
2037,-0.375,-0.23,
2038,-0.36,-0.215,
2039,-0.36,-0.215,
2040,-0.35,-0.23,
2041,-0.35,-0.245,
2042,-0.37,-0.245,
2043,-0.375,-0.245,
2044,-0.365,-0.24,
2045,-0.36,-0.215,
2046,-0.36,-0.23,
2047,-0.36,-0.23,
2048,-0.36,-0.235,
2049,-0.365,-0.24,
2050,-0.35,-0.225,
2051,-0.325,-0.215,
2052,-0.315,-0.23,
2053,-0.305,-0.225,
2054,-0.3,-0.23,
2055,-0.305,-0.235,
2056,-0.295,-0.215,
2057,-0.285,-0.2,
2058,-0.275,-0.215,
2059,-0.285,-0.22,
2060,-0.275,-0.225,
2061,-0.275,-0.22,
2062,-0.255,-0.22,
2063,-0.24,-0.2,
2064,-0.245,-0.205,
2065,-0.24,-0.215,
2066,-0.25,-0.225,
2067,-0.245,-0.205,
2068,-0.235,-0.195,
2069,-0.235,-0.185,
2070,-0.245,-0.2,
2071,-0.255,-0.21,
2072,-0.285,-0.24,
2073,-0.31,-0.26,
2074,-0.315,-0.26,
2075,-0.31,-0.255,
2076,-0.29,-0.26,
2077,-0.29,-0.255,
2078,-0.29,-0.26,
2079,-0.305,-0.23,
2080,-0.31,-0.205,
2081,-0.32,-0.185,
2082,-0.33,-0.18,
2083,-0.35,-0.205,
2084,-0.355,-0.215,
2085,-0.37,-0.21,
2086,-0.365,-0.2,
2087,-0.37,-0.19,
2088,-0.385,-0.21,
2089,-0.395,-0.22,
2090,-0.405,-0.24,
2091,-0.41,-0.235,
2092,-0.41,-0.235,
2093,-0.4,-0.22,
2094,-0.4,-0.23,
2095,-0.41,-0.24,
2096,-0.43,-0.24,
2097,-0.44,-0.24,
2098,-0.425,-0.24,
2099,-0.43,-0.22,
2100,-0.425,-0.225,
2101,-0.415,-0.24,
2102,-0.425,-0.245,
2103,-0.42,-0.23,
2104,-0.415,-0.225,
2105,-0.4,-0.21,
2106,-0.405,-0.225,
2107,-0.41,-0.23,
2108,-0.415,-0.225,
2109,-0.415,-0.22,
2110,-0.405,-0.215,
2111,-0.4,-0.195,
2112,-0.41,-0.19,
2113,-0.42,-0.21,
2114,-0.475,-0.215,
2115,-0.53,-0.24,
2116,-0.56,-0.23,
2117,-0.56,-0.23,
2118,-0.505,-0.215,
2119,-0.44,-0.175,
2120,-0.315,-0.155,
2121,-0.105,-0.105,
2122,0.22,0.02,
2123,0.57,0.21,
2124,0.91,0.43,
2125,1.255,0.65,
2126,1.535,0.86,
2127,1.7,1.075,N
2128,1.77,1.215,
2129,1.67,1.215,
2130,1.335,1.08,
2131,0.845,0.8,
2132,0.35,0.425,
2133,-0.05,0.035,
2134,-0.33,-0.29,
2135,-0.475,-0.485,
2136,-0.525,-0.545,
2137,-0.52,-0.545,
2138,-0.455,-0.465,
2139,-0.365,-0.345,
2140,-0.315,-0.22,
2141,-0.295,-0.15,
2142,-0.345,-0.14,
2143,-0.375,-0.17,
2144,-0.39,-0.2,
2145,-0.395,-0.185,
2146,-0.375,-0.17,
2147,-0.38,-0.16,
2148,-0.4,-0.16,
2149,-0.425,-0.175,
2150,-0.43,-0.2,
2151,-0.445,-0.205,
2152,-0.435,-0.19,
2153,-0.43,-0.18,
2154,-0.43,-0.195,
2155,-0.425,-0.195,
2156,-0.445,-0.19,
2157,-0.445,-0.2,
2158,-0.455,-0.185,
2159,-0.445,-0.17,
2160,-0.43,-0.165,
2161,-0.43,-0.185,
2162,-0.45,-0.18,
2163,-0.46,-0.185,
2164,-0.445,-0.18,
2165,-0.445,-0.185,
2166,-0.435,-0.18,
2167,-0.44,-0.19,
2168,-0.445,-0.2,
2169,-0.455,-0.185,
2170,-0.45,-0.18,
2171,-0.435,-0.165,
2172,-0.425,-0.165,
2173,-0.435,-0.175,
2174,-0.445,-0.17,
2175,-0.45,-0.17,
2176,-0.44,-0.16,
2177,-0.425,-0.155,
2178,-0.42,-0.155,
2179,-0.425,-0.175,
2180,-0.425,-0.17,
2181,-0.43,-0.17,
2182,-0.415,-0.155,
2183,-0.405,-0.16,
2184,-0.4,-0.155,
2185,-0.395,-0.17,
2186,-0.4,-0.155,
2187,-0.4,-0.15,
2188,-0.38,-0.14,
2189,-0.37,-0.14,
2190,-0.37,-0.13,
2191,-0.365,-0.14,
2192,-0.36,-0.135,
2193,-0.365,-0.13,
2194,-0.34,-0.115,
2195,-0.325,-0.105,
2196,-0.31,-0.1,
2197,-0.305,-0.1,
2198,-0.3,-0.085,
2199,-0.285,-0.075,
2200,-0.265,-0.065,
2201,-0.245,-0.035,
2202,-0.225,-0.03,
2203,-0.215,-0.015,
2204,-0.22,-0.025,
2205,-0.195,-0.005,
2206,-0.165,0.0,
2207,-0.145,0.035,
2208,-0.12,0.04,
2209,-0.11,0.04,
2210,-0.11,0.055,
2211,-0.09,0.055,
2212,-0.065,0.075,
2213,-0.04,0.105,
2214,-0.02,0.105,
2215,-0.01,0.11,
2216,0.005,0.125,
2217,0.015,0.135,
2218,0.04,0.15,
2219,0.045,0.165,
2220,0.07,0.17,
2221,0.07,0.17,
2222,0.065,0.175,
2223,0.075,0.175,
2224,0.075,0.185,
2225,0.1,0.19,
2226,0.115,0.205,
2227,0.12,0.195,
2228,0.105,0.185,
2229,0.09,0.19,
2230,0.1,0.185,
2231,0.105,0.2,
2232,0.095,0.19,
2233,0.075,0.165,
2234,0.06,0.165,
2235,0.025,0.16,
2236,0.01,0.165,
2237,0.015,0.15,
2238,-0.005,0.125,
2239,-0.045,0.105,
2240,-0.08,0.09,
2241,-0.1,0.06,
2242,-0.115,0.06,
2243,-0.11,0.05,
2244,-0.135,0.03,
2245,-0.165,0.01,
2246,-0.19,-0.015,
2247,-0.195,-0.04,
2248,-0.2,-0.04,
2249,-0.21,-0.05,
2250,-0.22,-0.055,
2251,-0.225,-0.07,
2252,-0.255,-0.09,
2253,-0.26,-0.085,
2254,-0.265,-0.09,
2255,-0.265,-0.085,
2256,-0.27,-0.095,
2257,-0.275,-0.115,
2258,-0.28,-0.115,
2259,-0.285,-0.135,
2260,-0.29,-0.13,
2261,-0.285,-0.105,
2262,-0.285,-0.12,
2263,-0.29,-0.14,
2264,-0.3,-0.135,
2265,-0.31,-0.145,
2266,-0.305,-0.145,
2267,-0.295,-0.13,
2268,-0.29,-0.14,
2269,-0.29,-0.145,
2270,-0.295,-0.15,
2271,-0.3,-0.155,
2272,-0.3,-0.135,
2273,-0.285,-0.135,
2274,-0.285,-0.14,
2275,-0.29,-0.14,
2276,-0.3,-0.15,
2277,-0.29,-0.145,
2278,-0.295,-0.14,
2279,-0.28,-0.125,
2280,-0.28,-0.135,
2281,-0.28,-0.145,
2282,-0.275,-0.145,
2283,-0.285,-0.145,
2284,-0.275,-0.13,
2285,-0.265,-0.115,
2286,-0.265,-0.12,
2287,-0.26,-0.13,
2288,-0.26,-0.135,
2289,-0.27,-0.125,
2290,-0.26,-0.105,
2291,-0.255,-0.11,
2292,-0.245,-0.105,
2293,-0.245,-0.115,
2294,-0.245,-0.125,
2295,-0.245,-0.12,
2296,-0.25,-0.105,
2297,-0.235,-0.11,
2298,-0.245,-0.105,
2299,-0.235,-0.105,
2300,-0.26,-0.125,
2301,-0.26,-0.11,
2302,-0.26,-0.11,
2303,-0.23,-0.09,
2304,-0.24,-0.085,
2305,-0.23,-0.105,
2306,-0.245,-0.105,
2307,-0.24,-0.115,
2308,-0.245,-0.11,
2309,-0.25,-0.105,
2310,-0.24,-0.105,
2311,-0.24,-0.125,
2312,-0.255,-0.135,
2313,-0.26,-0.12,
2314,-0.255,-0.11,
2315,-0.24,-0.1,
2316,-0.245,-0.11,
2317,-0.255,-0.125,
2318,-0.255,-0.135,
2319,-0.275,-0.15,
2320,-0.26,-0.125,
2321,-0.26,-0.115,
2322,-0.26,-0.12,
2323,-0.265,-0.12,
2324,-0.265,-0.145,
2325,-0.28,-0.135,
2326,-0.275,-0.14,
2327,-0.26,-0.135,
2328,-0.275,-0.14,
2329,-0.275,-0.155,
2330,-0.285,-0.155,
2331,-0.295,-0.165,
2332,-0.3,-0.17,
2333,-0.29,-0.165,
2334,-0.295,-0.16,
2335,-0.295,-0.17,
2336,-0.295,-0.18,
2337,-0.32,-0.185,
2338,-0.315,-0.175,
2339,-0.3,-0.175,
2340,-0.305,-0.18,
2341,-0.325,-0.185,
2342,-0.325,-0.19,
2343,-0.33,-0.19,
2344,-0.32,-0.185,
2345,-0.32,-0.17,
2346,-0.315,-0.185,
2347,-0.32,-0.19,
2348,-0.33,-0.195,
2349,-0.345,-0.2,
2350,-0.335,-0.185,
2351,-0.33,-0.18,
2352,-0.325,-0.18,
2353,-0.335,-0.185,
2354,-0.34,-0.205,
2355,-0.34,-0.2,
2356,-0.33,-0.185,
2357,-0.33,-0.185,
2358,-0.32,-0.18,
2359,-0.33,-0.195,
2360,-0.33,-0.21,
2361,-0.34,-0.21,
2362,-0.335,-0.195,
2363,-0.33,-0.19,
2364,-0.325,-0.19,
2365,-0.33,-0.195,
2366,-0.335,-0.205,
2367,-0.345,-0.195,
2368,-0.33,-0.2,
2369,-0.325,-0.19,
2370,-0.31,-0.195,
2371,-0.3,-0.205,
2372,-0.28,-0.21,
2373,-0.265,-0.205,
2374,-0.27,-0.19,
2375,-0.27,-0.18,
2376,-0.25,-0.185,
2377,-0.24,-0.19,
2378,-0.25,-0.195,
2379,-0.25,-0.195,
2380,-0.245,-0.17,
2381,-0.205,-0.19,
2382,-0.21,-0.18,
2383,-0.22,-0.19,
2384,-0.23,-0.185,
2385,-0.225,-0.2,
2386,-0.21,-0.17,
2387,-0.215,-0.16,
2388,-0.21,-0.185,
2389,-0.235,-0.18,
2390,-0.245,-0.195,
2391,-0.27,-0.205,
2392,-0.255,-0.21,
2393,-0.27,-0.21,
2394,-0.255,-0.225,
2395,-0.25,-0.235,
2396,-0.26,-0.235,
2397,-0.26,-0.22,
2398,-0.26,-0.185,
2399,-0.26,-0.17,
2400,-0.275,-0.16,
2401,-0.3,-0.17,
2402,-0.315,-0.185,
2403,-0.325,-0.18,
2404,-0.33,-0.175,
2405,-0.34,-0.17,
2406,-0.33,-0.185,
2407,-0.345,-0.21,
2408,-0.365,-0.205,
2409,-0.38,-0.205,
2410,-0.375,-0.205,
2411,-0.375,-0.195,
2412,-0.385,-0.205,
2413,-0.385,-0.21,
2414,-0.39,-0.22,
2415,-0.39,-0.21,
2416,-0.395,-0.195,
2417,-0.385,-0.195,
2418,-0.39,-0.2,
2419,-0.39,-0.205,
2420,-0.395,-0.22,
2421,-0.4,-0.205,
2422,-0.395,-0.205,
2423,-0.385,-0.19,
2424,-0.38,-0.19,
2425,-0.385,-0.195,
2426,-0.4,-0.2,
2427,-0.4,-0.205,
2428,-0.395,-0.195,
2429,-0.385,-0.175,
2430,-0.4,-0.185,
2431,-0.445,-0.205,
2432,-0.52,-0.215,
2433,-0.57,-0.23,
2434,-0.54,-0.215,
2435,-0.475,-0.195,
2436,-0.38,-0.15,
2437,-0.245,-0.11,
2438,-0.005,-0.04,
2439,0.37,0.095,
2440,0.79,0.35,
2441,1.19,0.6,
2442,1.515,0.84,
2443,1.735,1.09,
2444,1.825,1.265,N
2445,1.74,1.31,
2446,1.42,1.17,
2447,0.91,0.83,
2448,0.345,0.36,
2449,-0.12,-0.105,
2450,-0.395,-0.425,
2451,-0.51,-0.57,
2452,-0.49,-0.565,
2453,-0.42,-0.46,
2454,-0.325,-0.35,
2455,-0.28,-0.235,
2456,-0.27,-0.16,
2457,-0.32,-0.135,
2458,-0.35,-0.135,
2459,-0.35,-0.15,
2460,-0.35,-0.17,
2461,-0.335,-0.175,
2462,-0.365,-0.17,
2463,-0.395,-0.175,
2464,-0.4,-0.175,
2465,-0.4,-0.175,
2466,-0.395,-0.18,
2467,-0.41,-0.18,
2468,-0.415,-0.2,
2469,-0.42,-0.185,
2470,-0.43,-0.175,
2471,-0.42,-0.175,
2472,-0.415,-0.17,
2473,-0.415,-0.18,
2474,-0.425,-0.195,
2475,-0.425,-0.19,
2476,-0.425,-0.175,
2477,-0.42,-0.17,
2478,-0.405,-0.165,
2479,-0.41,-0.18,
2480,-0.42,-0.18,
2481,-0.425,-0.175,
2482,-0.425,-0.17,
2483,-0.41,-0.16,
2484,-0.405,-0.155,
2485,-0.41,-0.155,
2486,-0.41,-0.175,
2487,-0.42,-0.165,
2488,-0.41,-0.165,
2489,-0.41,-0.145,
2490,-0.385,-0.15,
2491,-0.39,-0.155,
2492,-0.4,-0.16,
2493,-0.415,-0.155,
2494,-0.395,-0.135,
2495,-0.385,-0.145,
2496,-0.375,-0.145,
2497,-0.37,-0.14,
2498,-0.37,-0.135,
2499,-0.365,-0.13,
2500,-0.36,-0.115,
2501,-0.345,-0.11,
2502,-0.33,-0.1,
2503,-0.32,-0.105,
2504,-0.315,-0.11,
2505,-0.32,-0.1,
2506,-0.29,-0.085,
2507,-0.275,-0.065,
2508,-0.26,-0.06,
2509,-0.255,-0.06,
2510,-0.245,-0.055,
2511,-0.255,-0.05,
2512,-0.22,-0.045,
2513,-0.195,-0.02,
2514,-0.16,-0.005,
2515,-0.155,0.0,
2516,-0.145,0.01,
2517,-0.145,0.02,
2518,-0.11,0.045,
2519,-0.075,0.065,
2520,-0.06,0.06,
2521,-0.04,0.085,
2522,-0.03,0.08,
2523,-0.01,0.085,
2524,0.01,0.105,
2525,0.04,0.135,
2526,0.055,0.145,
2527,0.055,0.14,
2528,0.065,0.145,
2529,0.075,0.15,
2530,0.09,0.16,
2531,0.1,0.19,
2532,0.11,0.2,
2533,0.13,0.19,
2534,0.13,0.185,
2535,0.13,0.195,
2536,0.135,0.22,
2537,0.155,0.215,
2538,0.15,0.21,
2539,0.15,0.205,
2540,0.135,0.19,
2541,0.12,0.2,
2542,0.115,0.195,
2543,0.12,0.2,
2544,0.11,0.185,
2545,0.085,0.16,
2546,0.055,0.14,
2547,0.03,0.145,
2548,0.025,0.14,
2549,0.0,0.115,
2550,-0.02,0.1,
2551,-0.05,0.085,
2552,-0.08,0.045,
2553,-0.115,0.03,
2554,-0.13,0.025,
2555,-0.145,0.015,
2556,-0.145,-0.01,
2557,-0.175,-0.02,
2558,-0.205,-0.055,
2559,-0.23,-0.055,
2560,-0.235,-0.06,
2561,-0.235,-0.065,
2562,-0.245,-0.085,
2563,-0.255,-0.105,
2564,-0.27,-0.105,
2565,-0.285,-0.12,
2566,-0.28,-0.11,
2567,-0.28,-0.12,
2568,-0.285,-0.12,
2569,-0.29,-0.135,
2570,-0.305,-0.145,
2571,-0.305,-0.155,
2572,-0.3,-0.145,
2573,-0.29,-0.135,
2574,-0.295,-0.145,
2575,-0.3,-0.145,
2576,-0.3,-0.16,
2577,-0.315,-0.16,
2578,-0.31,-0.15,
2579,-0.29,-0.145,
2580,-0.3,-0.15,
2581,-0.31,-0.165,
2582,-0.31,-0.16,
2583,-0.315,-0.155,
2584,-0.31,-0.15,
2585,-0.29,-0.145,
2586,-0.285,-0.14,
2587,-0.29,-0.14,
2588,-0.295,-0.15,
2589,-0.295,-0.15,
2590,-0.29,-0.15,
2591,-0.275,-0.125,
2592,-0.26,-0.13,
2593,-0.28,-0.13,
2594,-0.27,-0.14,
2595,-0.275,-0.135,
2596,-0.265,-0.125,
2597,-0.265,-0.125,
2598,-0.255,-0.115,
2599,-0.26,-0.125,
2600,-0.275,-0.125,
2601,-0.275,-0.135,
2602,-0.27,-0.13,
2603,-0.255,-0.105,
2604,-0.25,-0.1,
2605,-0.255,-0.115,
2606,-0.265,-0.12,
2607,-0.265,-0.11,
2608,-0.265,-0.105,
2609,-0.26,-0.09,
2610,-0.25,-0.105,
2611,-0.26,-0.115,
2612,-0.265,-0.12,
2613,-0.265,-0.11,
2614,-0.265,-0.105,
2615,-0.255,-0.105,
2616,-0.25,-0.105,
2617,-0.255,-0.12,
2618,-0.265,-0.12,
2619,-0.275,-0.12,
2620,-0.26,-0.12,
2621,-0.265,-0.11,
2622,-0.26,-0.11,
2623,-0.265,-0.125,
2624,-0.29,-0.14,
2625,-0.31,-0.13,
2626,-0.29,-0.125,
2627,-0.28,-0.115,
2628,-0.28,-0.12,
2629,-0.29,-0.14,
2630,-0.305,-0.155,
2631,-0.315,-0.15,
2632,-0.3,-0.14,
2633,-0.295,-0.135,
2634,-0.3,-0.155,
2635,-0.3,-0.16,
2636,-0.31,-0.17,
2637,-0.315,-0.18,
2638,-0.315,-0.165,
2639,-0.315,-0.155,
2640,-0.31,-0.155,
2641,-0.32,-0.17,
2642,-0.33,-0.19,
2643,-0.33,-0.19,
2644,-0.335,-0.18,
2645,-0.325,-0.165,
2646,-0.325,-0.18,
2647,-0.33,-0.19,
2648,-0.34,-0.185,
2649,-0.355,-0.21,
2650,-0.34,-0.2,
2651,-0.335,-0.19,
2652,-0.34,-0.19,
2653,-0.335,-0.215,
2654,-0.35,-0.205,
2655,-0.345,-0.21,
2656,-0.34,-0.2,
2657,-0.35,-0.19,
2658,-0.345,-0.19,
2659,-0.34,-0.195,
2660,-0.345,-0.205,
2661,-0.365,-0.195,
2662,-0.355,-0.195,
2663,-0.345,-0.175,
2664,-0.335,-0.185,
2665,-0.335,-0.205,
2666,-0.35,-0.215,
2667,-0.35,-0.2,
2668,-0.345,-0.195,
2669,-0.32,-0.205,
2670,-0.305,-0.18,
2671,-0.3,-0.18,
2672,-0.28,-0.195,
2673,-0.29,-0.205,
2674,-0.27,-0.185,
2675,-0.26,-0.17,
2676,-0.255,-0.17,
2677,-0.255,-0.175,
2678,-0.25,-0.18,
2679,-0.26,-0.185,
2680,-0.25,-0.18,
2681,-0.235,-0.17,
2682,-0.22,-0.17,
2683,-0.24,-0.175,
2684,-0.23,-0.19,
2685,-0.225,-0.18,
2686,-0.225,-0.175,
2687,-0.22,-0.175,
2688,-0.225,-0.18,
2689,-0.245,-0.205,
2690,-0.255,-0.215,
2691,-0.275,-0.22,
2692,-0.275,-0.225,
2693,-0.27,-0.21,
2694,-0.27,-0.23,
2695,-0.26,-0.225,
2696,-0.265,-0.22,
2697,-0.27,-0.18,
2698,-0.29,-0.16,
2699,-0.295,-0.16,
2700,-0.305,-0.165,
2701,-0.33,-0.175,
2702,-0.34,-0.18,
2703,-0.36,-0.19,
2704,-0.355,-0.18,
2705,-0.36,-0.17,
2706,-0.365,-0.175,
2707,-0.375,-0.2,
2708,-0.385,-0.21,
2709,-0.405,-0.215,
2710,-0.4,-0.2,
2711,-0.395,-0.19,
2712,-0.385,-0.195,
2713,-0.405,-0.195,
2714,-0.41,-0.215,
2715,-0.415,-0.21,
2716,-0.41,-0.2,
2717,-0.405,-0.185,
2718,-0.405,-0.19,
2719,-0.405,-0.195,
2720,-0.41,-0.215,
2721,-0.405,-0.2,
2722,-0.4,-0.19,
2723,-0.39,-0.19,
2724,-0.37,-0.185,
2725,-0.395,-0.19,
2726,-0.405,-0.205,
2727,-0.405,-0.18,
2728,-0.415,-0.18,
2729,-0.41,-0.185,
2730,-0.42,-0.175,
2731,-0.455,-0.195,
2732,-0.525,-0.215,
2733,-0.6,-0.225,
2734,-0.58,-0.22,
2735,-0.525,-0.205,
2736,-0.45,-0.165,
2737,-0.35,-0.135,
2738,-0.175,-0.095,
2739,0.115,0.0,
2740,0.51,0.195,
2741,0.905,0.425,
2742,1.255,0.675,
2743,1.56,0.935,
2744,1.785,1.195,N
2745,1.855,1.375,
2746,1.755,1.385,
2747,1.4,1.215,
2748,0.875,0.81,
2749,0.3,0.305,
2750,-0.155,-0.155,
2751,-0.39,-0.455,
2752,-0.48,-0.6,
2753,-0.485,-0.59,
2754,-0.455,-0.51,
2755,-0.405,-0.42,
2756,-0.33,-0.335,
2757,-0.28,-0.23,
2758,-0.295,-0.16,
2759,-0.32,-0.12,
2760,-0.34,-0.13,
2761,-0.35,-0.15,
2762,-0.375,-0.18,
2763,-0.375,-0.17,
2764,-0.37,-0.155,
2765,-0.385,-0.155,
2766,-0.39,-0.16,
2767,-0.405,-0.18,
2768,-0.425,-0.19,
2769,-0.445,-0.18,
2770,-0.43,-0.17,
2771,-0.44,-0.16,
2772,-0.44,-0.16,
2773,-0.445,-0.18,
2774,-0.44,-0.185,
2775,-0.45,-0.175,
2776,-0.44,-0.175,
2777,-0.43,-0.165,
2778,-0.435,-0.16,
2779,-0.435,-0.175,
2780,-0.44,-0.175,
2781,-0.455,-0.17,
2782,-0.44,-0.16,
2783,-0.43,-0.155,
2784,-0.425,-0.155,
2785,-0.435,-0.16,
2786,-0.43,-0.17,
2787,-0.435,-0.165,
2788,-0.43,-0.15,
2789,-0.415,-0.15,
2790,-0.41,-0.145,
2791,-0.405,-0.15,
2792,-0.41,-0.155,
2793,-0.43,-0.145,
2794,-0.42,-0.135,
2795,-0.41,-0.13,
2796,-0.39,-0.12,
2797,-0.395,-0.125,
2798,-0.385,-0.13,
2799,-0.385,-0.12,
2800,-0.375,-0.1,
2801,-0.375,-0.09,
2802,-0.355,-0.09,
2803,-0.36,-0.09,
2804,-0.355,-0.1,
2805,-0.36,-0.1,
2806,-0.345,-0.085,
2807,-0.33,-0.065,
2808,-0.315,-0.07,
2809,-0.31,-0.06,
2810,-0.305,-0.06,
2811,-0.29,-0.05,
2812,-0.275,-0.03,
2813,-0.25,-0.015,
2814,-0.235,-0.005,
2815,-0.22,-0.015,
2816,-0.215,-0.01,
2817,-0.2,0.005,
2818,-0.17,0.02,
2819,-0.14,0.05,
2820,-0.13,0.055,
2821,-0.11,0.075,
2822,-0.095,0.065,
2823,-0.075,0.075,
2824,-0.06,0.09,
2825,-0.03,0.115,
2826,-0.01,0.125,
2827,0.0,0.125,
2828,0.015,0.135,
2829,0.025,0.145,
2830,0.05,0.155,
2831,0.06,0.18,
2832,0.095,0.2,
2833,0.1,0.19,
2834,0.105,0.185,
2835,0.115,0.195,
2836,0.135,0.215,
2837,0.15,0.225,
2838,0.15,0.24,
2839,0.165,0.24,
2840,0.165,0.235,
2841,0.16,0.24,
2842,0.165,0.25,
2843,0.17,0.26,
2844,0.16,0.25,
2845,0.165,0.235,
2846,0.15,0.22,
2847,0.12,0.22,
2848,0.125,0.22,
2849,0.11,0.22,
2850,0.1,0.22,
2851,0.07,0.18,
2852,0.04,0.165,
2853,0.015,0.155,
2854,0.0,0.15,
2855,-0.02,0.135,
2856,-0.04,0.12,
2857,-0.07,0.09,
2858,-0.1,0.07,
2859,-0.13,0.05,
2860,-0.145,0.045,
2861,-0.155,0.04,
2862,-0.16,0.02,
2863,-0.18,-0.015,
2864,-0.205,-0.025,
2865,-0.23,-0.035,
2866,-0.22,-0.04,
2867,-0.23,-0.04,
2868,-0.245,-0.05,
2869,-0.255,-0.065,
2870,-0.26,-0.08,
2871,-0.265,-0.07,
2872,-0.26,-0.08,
2873,-0.265,-0.075,
2874,-0.27,-0.075,
2875,-0.275,-0.1,
2876,-0.28,-0.11,
2877,-0.28,-0.1,
2878,-0.275,-0.095,
2879,-0.27,-0.095,
2880,-0.27,-0.1,
2881,-0.285,-0.11,
2882,-0.275,-0.125,
2883,-0.28,-0.12,
2884,-0.275,-0.105,
2885,-0.275,-0.1,
2886,-0.27,-0.11,
2887,-0.275,-0.115,
2888,-0.285,-0.12,
2889,-0.28,-0.1,
2890,-0.265,-0.105,
2891,-0.245,-0.09,
2892,-0.245,-0.09,
2893,-0.245,-0.105,
2894,-0.245,-0.1,
2895,-0.255,-0.085,
2896,-0.255,-0.09,
2897,-0.25,-0.07,
2898,-0.23,-0.075,
2899,-0.24,-0.08,
2900,-0.23,-0.095,
2901,-0.25,-0.075,
2902,-0.23,-0.065,
2903,-0.23,-0.065,
2904,-0.215,-0.055,
2905,-0.22,-0.06,
2906,-0.225,-0.055,
2907,-0.25,-0.05,
2908,-0.23,-0.045,
2909,-0.21,-0.04,
2910,-0.205,-0.04,
2911,-0.22,-0.05,
2912,-0.22,-0.05,
2913,-0.23,-0.045,
2914,-0.225,-0.035,
2915,-0.195,-0.045,
2916,-0.195,-0.035,
2917,-0.205,-0.045,
2918,-0.22,-0.05,
2919,-0.235,-0.05,
2920,-0.225,-0.03,
2921,-0.22,-0.04,
2922,-0.23,-0.05,
2923,-0.235,-0.065,
2924,-0.24,-0.085,
2925,-0.245,-0.07,
2926,-0.245,-0.065,
2927,-0.235,-0.06,
2928,-0.235,-0.05,
2929,-0.24,-0.065,
2930,-0.265,-0.095,
2931,-0.255,-0.075,
2932,-0.265,-0.07,
2933,-0.255,-0.07,
2934,-0.25,-0.075,
2935,-0.27,-0.085,
2936,-0.285,-0.1,
2937,-0.275,-0.09,
2938,-0.285,-0.085,
2939,-0.265,-0.09,
2940,-0.275,-0.085,
2941,-0.295,-0.1,
2942,-0.3,-0.12,
2943,-0.31,-0.125,
2944,-0.285,-0.105,
2945,-0.285,-0.105,
2946,-0.285,-0.1,
2947,-0.29,-0.095,
2948,-0.3,-0.11,
2949,-0.315,-0.115,
2950,-0.305,-0.12,
2951,-0.305,-0.105,
2952,-0.29,-0.11,
2953,-0.305,-0.12,
2954,-0.305,-0.115,
2955,-0.32,-0.105,
2956,-0.32,-0.115,
2957,-0.315,-0.11,
2958,-0.3,-0.105,
2959,-0.31,-0.125,
2960,-0.315,-0.135,
2961,-0.325,-0.13,
2962,-0.315,-0.12,
2963,-0.305,-0.115,
2964,-0.305,-0.12,
2965,-0.3,-0.12,
2966,-0.305,-0.135,
2967,-0.305,-0.135,
2968,-0.3,-0.125,
2969,-0.28,-0.11,
2970,-0.275,-0.12,
2971,-0.25,-0.13,
2972,-0.24,-0.135,
2973,-0.25,-0.11,
2974,-0.25,-0.095,
2975,-0.23,-0.08,
2976,-0.23,-0.095,
2977,-0.23,-0.1,
2978,-0.22,-0.11,
2979,-0.215,-0.1,
2980,-0.205,-0.11,
2981,-0.195,-0.105,
2982,-0.2,-0.1,
2983,-0.2,-0.095,
2984,-0.2,-0.105,
2985,-0.195,-0.11,
2986,-0.19,-0.095,
2987,-0.19,-0.095,
2988,-0.205,-0.09,
2989,-0.215,-0.105,
2990,-0.245,-0.12,
2991,-0.26,-0.145,
2992,-0.255,-0.15,
2993,-0.24,-0.14,
2994,-0.24,-0.145,
2995,-0.235,-0.14,
2996,-0.235,-0.135,
2997,-0.255,-0.105,
2998,-0.26,-0.08,
2999,-0.27,-0.08,
3000,-0.27,-0.065,
3001,-0.29,-0.075,
3002,-0.31,-0.1,
3003,-0.31,-0.09,
3004,-0.32,-0.09,
3005,-0.32,-0.09,
3006,-0.32,-0.095,
3007,-0.33,-0.105,
3008,-0.345,-0.125,
3009,-0.35,-0.12,
3010,-0.37,-0.115,
3011,-0.345,-0.11,
3012,-0.35,-0.11,
3013,-0.355,-0.11,
3014,-0.355,-0.125,
3015,-0.365,-0.12,
3016,-0.37,-0.11,
3017,-0.35,-0.09,
3018,-0.355,-0.1,
3019,-0.365,-0.115,
3020,-0.365,-0.115,
3021,-0.38,-0.115,
3022,-0.36,-0.095,
3023,-0.345,-0.1,
3024,-0.355,-0.1,
3025,-0.37,-0.105,
3026,-0.355,-0.1,
3027,-0.37,-0.1,
3028,-0.365,-0.085,
3029,-0.365,-0.075,
3030,-0.39,-0.08,
3031,-0.46,-0.1,
3032,-0.525,-0.125,
3033,-0.555,-0.13,
3034,-0.515,-0.11,
3035,-0.445,-0.07,
3036,-0.355,-0.03,
3037,-0.215,0.0,
3038,0.05,0.065,
3039,0.4,0.22,
3040,0.81,0.455,
3041,1.17,0.7,
3042,1.49,0.93,
3043,1.73,1.17,
3044,1.84,1.345,N
3045,1.81,1.41,
3046,1.55,1.32,
3047,1.07,1.045,
3048,0.51,0.59,
3049,0.02,0.105,
3050,-0.295,-0.26,
3051,-0.435,-0.47,
3052,-0.46,-0.51,
3053,-0.45,-0.46,
3054,-0.405,-0.37,
3055,-0.315,-0.265,
3056,-0.235,-0.165,
3057,-0.245,-0.09,
3058,-0.27,-0.045,
3059,-0.295,-0.045,
3060,-0.295,-0.055,
3061,-0.3,-0.075,
3062,-0.315,-0.085,
3063,-0.33,-0.07,
3064,-0.335,-0.05,
3065,-0.335,-0.055,
3066,-0.345,-0.065,
3067,-0.37,-0.07,
3068,-0.365,-0.08,
3069,-0.375,-0.07,
3070,-0.38,-0.07,
3071,-0.375,-0.055,
3072,-0.375,-0.06,
3073,-0.375,-0.065,
3074,-0.385,-0.07,
3075,-0.405,-0.07,
3076,-0.39,-0.06,
3077,-0.385,-0.05,
3078,-0.375,-0.05,
3079,-0.385,-0.06,
3080,-0.385,-0.07,
3081,-0.4,-0.065,
3082,-0.38,-0.05,
3083,-0.38,-0.045,
3084,-0.375,-0.04,
3085,-0.38,-0.05,
3086,-0.38,-0.06,
3087,-0.38,-0.045,
3088,-0.365,-0.04,
3089,-0.365,-0.015,
3090,-0.345,-0.015,
3091,-0.36,-0.03,
3092,-0.36,-0.04,
3093,-0.365,-0.035,
3094,-0.37,-0.03,
3095,-0.345,-0.025,
3096,-0.34,-0.01,
3097,-0.35,-0.03,
3098,-0.34,-0.03,
3099,-0.355,-0.025,
3100,-0.335,0.0,
3101,-0.325,0.0,
3102,-0.305,0.0,
3103,-0.31,-0.01,
3104,-0.315,-0.015,
3105,-0.31,-0.01,
3106,-0.29,0.015,
3107,-0.27,0.03,
3108,-0.26,0.03,
3109,-0.26,0.035,
3110,-0.265,0.03,
3111,-0.25,0.04,
3112,-0.22,0.06,
3113,-0.21,0.08,
3114,-0.19,0.085,
3115,-0.18,0.075,
3116,-0.175,0.08,
3117,-0.175,0.1,
3118,-0.145,0.105,
3119,-0.125,0.13,
3120,-0.105,0.15,
3121,-0.075,0.16,
3122,-0.055,0.16,
3123,-0.05,0.16,
3124,-0.04,0.19,
3125,-0.01,0.215,
3126,0.02,0.23,
3127,0.03,0.22,
3128,0.035,0.215,
3129,0.045,0.235,
3130,0.06,0.25,
3131,0.085,0.27,
3132,0.1,0.275,
3133,0.115,0.27,
3134,0.115,0.285,
3135,0.12,0.28,
3136,0.145,0.3,
3137,0.15,0.315,
3138,0.155,0.315,
3139,0.165,0.315,
3140,0.175,0.315,
3141,0.165,0.325,
3142,0.185,0.335,
3143,0.18,0.355,
3144,0.18,0.345,
3145,0.18,0.33,
3146,0.165,0.33,
3147,0.15,0.32,
3148,0.135,0.315,
3149,0.13,0.305,
3150,0.105,0.3,
3151,0.08,0.275,
3152,0.06,0.255,
3153,0.02,0.245,
3154,0.015,0.235,
3155,-0.005,0.225,
3156,-0.03,0.205,
3157,-0.05,0.17,
3158,-0.06,0.15,
3159,-0.1,0.14,
3160,-0.105,0.135,
3161,-0.13,0.125,
3162,-0.135,0.11,
3163,-0.15,0.095,
3164,-0.17,0.06,
3165,-0.185,0.055,
3166,-0.19,0.05,
3167,-0.19,0.045,
3168,-0.19,0.04,
3169,-0.2,0.02,
3170,-0.215,0.015,
3171,-0.22,0.015,
3172,-0.215,0.015,
3173,-0.225,0.015,
3174,-0.21,0.01,
3175,-0.215,0.005,
3176,-0.225,-0.005,
3177,-0.235,0.0,
3178,-0.225,-0.005,
3179,-0.225,-0.005,
3180,-0.225,-0.015,
3181,-0.245,-0.025,
3182,-0.235,-0.015,
3183,-0.235,-0.02,
3184,-0.23,0.01,
3185,-0.215,0.01,
3186,-0.21,0.01,
3187,-0.215,0.0,
3188,-0.225,-0.01,
3189,-0.22,0.0,
3190,-0.21,0.015,
3191,-0.2,0.025,
3192,-0.2,0.015,
3193,-0.2,0.01,
3194,-0.205,0.005,
3195,-0.225,0.02,
3196,-0.195,0.025,
3197,-0.2,0.04,
3198,-0.19,0.025,
3199,-0.195,0.03,
3200,-0.205,0.015,
3201,-0.2,0.025,
3202,-0.21,0.04,
3203,-0.195,0.04,
3204,-0.195,0.04,
3205,-0.185,0.03,
3206,-0.195,0.03,
3207,-0.19,0.03,
3208,-0.195,0.045,
3209,-0.18,0.055,
3210,-0.17,0.055,
3211,-0.18,0.045,
3212,-0.19,0.04,
3213,-0.195,0.035,
3214,-0.2,0.04,
3215,-0.19,0.045,
3216,-0.185,0.045,
3217,-0.19,0.04,
3218,-0.2,0.02,
3219,-0.215,0.03,
3220,-0.215,0.035,
3221,-0.2,0.03,
3222,-0.185,0.03,
3223,-0.205,0.025,
3224,-0.21,0.02,
3225,-0.22,0.02,
3226,-0.225,0.03,
3227,-0.21,0.035,
3228,-0.2,0.02,
3229,-0.205,0.005,
3230,-0.23,-0.015,
3231,-0.23,-0.005,
3232,-0.23,0.005,
3233,-0.24,0.015,
3234,-0.24,0.0,
3235,-0.24,-0.01,
3236,-0.26,-0.02,
3237,-0.27,-0.02,
3238,-0.26,-0.01,
3239,-0.25,-0.01,
3240,-0.25,-0.01,
3241,-0.25,-0.035,
3242,-0.265,-0.035,
3243,-0.275,-0.025,
3244,-0.27,-0.025,
3245,-0.265,-0.02,
3246,-0.26,-0.03,
3247,-0.275,-0.045,
3248,-0.295,-0.045,
3249,-0.295,-0.045,
3250,-0.29,-0.04,
3251,-0.29,-0.05,
3252,-0.28,-0.04,
3253,-0.285,-0.06,
3254,-0.295,-0.055,
3255,-0.3,-0.045,
3256,-0.29,-0.04,
3257,-0.285,-0.025,
3258,-0.295,-0.025,
3259,-0.29,-0.05,
3260,-0.305,-0.06,
3261,-0.31,-0.05,
3262,-0.3,-0.055,
3263,-0.295,-0.055,
3264,-0.29,-0.035,
3265,-0.295,-0.05,
3266,-0.295,-0.075,
3267,-0.3,-0.06,
3268,-0.295,-0.05,
3269,-0.29,-0.045,
3270,-0.275,-0.035,
3271,-0.28,-0.055,
3272,-0.27,-0.055,
3273,-0.26,-0.05,
3274,-0.24,-0.05,
3275,-0.22,-0.03,
3276,-0.225,-0.035,
3277,-0.225,-0.035,
3278,-0.22,-0.045,
3279,-0.215,-0.045,
3280,-0.205,-0.04,
3281,-0.19,-0.03,
3282,-0.185,-0.03,
3283,-0.175,-0.04,
3284,-0.18,-0.045,
3285,-0.195,-0.04,
3286,-0.185,-0.035,
3287,-0.18,-0.015,
3288,-0.17,-0.02,
3289,-0.16,-0.025,
3290,-0.185,-0.045,
3291,-0.2,-0.055,
3292,-0.21,-0.05,
3293,-0.22,-0.055,
3294,-0.23,-0.06,
3295,-0.23,-0.09,
3296,-0.235,-0.11,
3297,-0.225,-0.1,
3298,-0.215,-0.07,
3299,-0.2,-0.05,
3300,-0.205,-0.03,
3301,-0.225,-0.025,
3302,-0.245,-0.03,
3303,-0.27,-0.02,
3304,-0.275,-0.025,
3305,-0.285,-0.015,
3306,-0.28,-0.015,
3307,-0.3,-0.035,
3308,-0.315,-0.055,
3309,-0.33,-0.055,
3310,-0.33,-0.045,
3311,-0.325,-0.04,
3312,-0.34,-0.05,
3313,-0.355,-0.06,
3314,-0.36,-0.06,
3315,-0.365,-0.055,
3316,-0.36,-0.045,
3317,-0.35,-0.045,
3318,-0.345,-0.045,
3319,-0.355,-0.055,
3320,-0.36,-0.065,
3321,-0.365,-0.055,
3322,-0.36,-0.045,
3323,-0.35,-0.035,
3324,-0.355,-0.05,
3325,-0.345,-0.055,
3326,-0.375,-0.07,
3327,-0.37,-0.065,
3328,-0.36,-0.055,
3329,-0.35,-0.04,
3330,-0.35,-0.045,
3331,-0.35,-0.045,
3332,-0.375,-0.065,
3333,-0.41,-0.06,
3334,-0.45,-0.06,
3335,-0.5,-0.065,
3336,-0.515,-0.08,
3337,-0.47,-0.065,
3338,-0.405,-0.05,
3339,-0.31,0.015,
3340,-0.115,0.06,
3341,0.175,0.155,
3342,0.535,0.335,
3343,0.895,0.525,
3344,1.215,0.745,
3345,1.49,0.97,
3346,1.705,1.2,
3347,1.795,1.35,N
3348,1.755,1.39,
3349,1.525,1.295,
3350,1.105,1.075,
3351,0.59,0.7,
3352,0.12,0.285,
3353,-0.215,-0.075,
3354,-0.41,-0.32,
3355,-0.5,-0.445,
3356,-0.505,-0.44,
3357,-0.45,-0.36,
3358,-0.34,-0.24,
3359,-0.25,-0.115,
3360,-0.235,-0.03,
3361,-0.27,0.01,
3362,-0.295,0.0,
3363,-0.325,-0.01,
3364,-0.32,-0.02,
3365,-0.32,-0.02,
3366,-0.32,0.0,
3367,-0.34,-0.005,
3368,-0.345,-0.02,
3369,-0.375,-0.02,
3370,-0.375,-0.015,
3371,-0.375,-0.02,
3372,-0.37,-0.01,
3373,-0.375,-0.02,
3374,-0.39,-0.035,
3375,-0.4,-0.01,
3376,-0.405,-0.02,
3377,-0.4,-0.015,
3378,-0.39,-0.01,
3379,-0.39,-0.025,
3380,-0.41,-0.03,
3381,-0.41,-0.015,
3382,-0.395,-0.015,
3383,-0.395,-0.01,
3384,-0.39,-0.015,
3385,-0.39,-0.015,
3386,-0.4,-0.02,
3387,-0.42,-0.015,
3388,-0.405,-0.01,
3389,-0.39,-0.005,
3390,-0.39,-0.01,
3391,-0.39,-0.005,
3392,-0.395,-0.01,
3393,-0.405,-0.01,
3394,-0.38,0.005,
3395,-0.38,0.015,
3396,-0.365,0.01,
3397,-0.38,0.01,
3398,-0.385,0.01,
3399,-0.395,0.005,
3400,-0.38,0.02,
3401,-0.36,0.025,
3402,-0.36,0.03,
3403,-0.36,0.01,
3404,-0.36,0.015,
3405,-0.355,0.025,
3406,-0.35,0.035,
3407,-0.34,0.04,
3408,-0.33,0.04,
3409,-0.33,0.04,
3410,-0.335,0.035,
3411,-0.33,0.04,
3412,-0.315,0.06,
3413,-0.295,0.07,
3414,-0.28,0.075,
3415,-0.28,0.065,
3416,-0.285,0.075,
3417,-0.275,0.08,
3418,-0.255,0.1,
3419,-0.23,0.115,
3420,-0.22,0.115,
3421,-0.2,0.115,
3422,-0.19,0.115,
3423,-0.185,0.13,
3424,-0.165,0.14,
3425,-0.135,0.16,
3426,-0.115,0.16,
3427,-0.095,0.165,
3428,-0.095,0.18,
3429,-0.09,0.19,
3430,-0.065,0.21,
3431,-0.045,0.22,
3432,-0.03,0.235,
3433,-0.015,0.23,
3434,0.005,0.235,
3435,0.015,0.25,
3436,0.035,0.275,
3437,0.055,0.305,
3438,0.07,0.31,
3439,0.09,0.3,
3440,0.09,0.28,
3441,0.095,0.305,
3442,0.11,0.315,
3443,0.12,0.335,
3444,0.125,0.335,
3445,0.13,0.335,
3446,0.125,0.32,
3447,0.125,0.335,
3448,0.13,0.335,
3449,0.135,0.345,
3450,0.14,0.325,
3451,0.12,0.315,
3452,0.1,0.315,
3453,0.085,0.295,
3454,0.07,0.29,
3455,0.065,0.295,
3456,0.045,0.27,
3457,0.015,0.265,
3458,-0.005,0.235,
3459,-0.045,0.225,
3460,-0.06,0.205,
3461,-0.08,0.19,
3462,-0.11,0.17,
3463,-0.12,0.145,
3464,-0.155,0.13,
3465,-0.175,0.115,
3466,-0.18,0.12,
3467,-0.195,0.11,
3468,-0.2,0.1,
3469,-0.215,0.07,
3470,-0.235,0.06,
3471,-0.255,0.065,
3472,-0.245,0.055,
3473,-0.24,0.055,
3474,-0.255,0.05,
3475,-0.255,0.03,
3476,-0.28,0.02,
3477,-0.275,0.02,
3478,-0.28,0.02,
3479,-0.265,0.015,
3480,-0.265,0.02,
3481,-0.265,0.01,
3482,-0.285,0.0,
3483,-0.285,0.01,
3484,-0.29,0.015,
3485,-0.275,0.025,
3486,-0.285,0.025,
3487,-0.29,0.0,
3488,-0.295,0.005,
3489,-0.3,-0.005,
3490,-0.29,0.01,
3491,-0.27,0.02,
3492,-0.27,0.03,
3493,-0.265,0.01,
3494,-0.27,0.01,
3495,-0.28,0.015,
3496,-0.255,0.04,
3497,-0.25,0.04,
3498,-0.235,0.025,
3499,-0.25,0.03,
3500,-0.255,0.02,
3501,-0.255,0.025,
3502,-0.24,0.045,
3503,-0.22,0.045,
3504,-0.22,0.065,
3505,-0.23,0.05,
3506,-0.235,0.035,
3507,-0.24,0.05,
3508,-0.235,0.04,
3509,-0.225,0.06,
3510,-0.225,0.045,
3511,-0.225,0.045,
3512,-0.235,0.045,
3513,-0.235,0.06,
3514,-0.235,0.065,
3515,-0.22,0.06,
3516,-0.235,0.065,
3517,-0.225,0.055,
3518,-0.235,0.04,
3519,-0.245,0.045,
3520,-0.24,0.05,
3521,-0.235,0.065,
3522,-0.225,0.06,
3523,-0.24,0.04,
3524,-0.245,0.03,
3525,-0.265,0.03,
3526,-0.25,0.045,
3527,-0.255,0.05,
3528,-0.25,0.03,
3529,-0.255,0.03,
3530,-0.265,0.02,
3531,-0.275,0.015,
3532,-0.27,0.03,
3533,-0.27,0.03,
3534,-0.265,0.02,
3535,-0.275,0.01,
3536,-0.285,0.0,
3537,-0.29,0.0,
3538,-0.295,0.005,
3539,-0.285,0.015,
3540,-0.285,0.0,
3541,-0.29,-0.01,
3542,-0.305,-0.015,
3543,-0.3,-0.01,
3544,-0.31,-0.02,
3545,-0.305,-0.01,
3546,-0.315,-0.025,
3547,-0.305,-0.02,
3548,-0.32,-0.035,
3549,-0.335,-0.03,
3550,-0.32,-0.025,
3551,-0.31,-0.02,
3552,-0.31,-0.025,
3553,-0.315,-0.035,
3554,-0.335,-0.04,
3555,-0.345,-0.03,
3556,-0.335,-0.035,
3557,-0.32,-0.035,
3558,-0.31,-0.035,
3559,-0.33,-0.05,
3560,-0.335,-0.055,
3561,-0.35,-0.05,
3562,-0.34,-0.035,
3563,-0.325,-0.03,
3564,-0.32,-0.04,
3565,-0.34,-0.05,
3566,-0.33,-0.065,
3567,-0.35,-0.07,
3568,-0.335,-0.055,
3569,-0.32,-0.04,
3570,-0.31,-0.03,
3571,-0.31,-0.05,
3572,-0.305,-0.05,
3573,-0.295,-0.05,
3574,-0.275,-0.045,
3575,-0.25,-0.035,
3576,-0.26,-0.04,
3577,-0.255,-0.04,
3578,-0.265,-0.04,
3579,-0.275,-0.03,
3580,-0.265,-0.035,
3581,-0.23,-0.025,
3582,-0.22,-0.04,
3583,-0.225,-0.05,
3584,-0.235,-0.06,
3585,-0.245,-0.055,
3586,-0.22,-0.04,
3587,-0.215,-0.03,
3588,-0.215,-0.035,
3589,-0.215,-0.035,
3590,-0.24,-0.05,
3591,-0.25,-0.05,
3592,-0.26,-0.05,
3593,-0.275,-0.06,
3594,-0.275,-0.07,
3595,-0.29,-0.085,
3596,-0.295,-0.11,
3597,-0.28,-0.085,
3598,-0.265,-0.065,
3599,-0.26,-0.03,
3600,-0.28,-0.015,
3601,-0.295,-0.02,
3602,-0.31,-0.03,
3603,-0.335,-0.03,
3604,-0.33,-0.025,
3605,-0.32,-0.025,
3606,-0.33,-0.025,
3607,-0.35,-0.04,
3608,-0.37,-0.05,
3609,-0.38,-0.045,
3610,-0.375,-0.045,
3611,-0.385,-0.045,
3612,-0.385,-0.05,
3613,-0.4,-0.07,
3614,-0.405,-0.08,
3615,-0.42,-0.06,
3616,-0.405,-0.065,
3617,-0.39,-0.05,
3618,-0.385,-0.045,
3619,-0.4,-0.055,
3620,-0.415,-0.065,
3621,-0.41,-0.06,
3622,-0.405,-0.055,
3623,-0.39,-0.05,
3624,-0.4,-0.04,
3625,-0.4,-0.05,
3626,-0.4,-0.06,
3627,-0.405,-0.06,
3628,-0.395,-0.05,
3629,-0.39,-0.035,
3630,-0.395,-0.045,
3631,-0.405,-0.055,
3632,-0.44,-0.065,
3633,-0.5,-0.07,
3634,-0.555,-0.06,
3635,-0.595,-0.09,
3636,-0.58,-0.085,
3637,-0.53,-0.075,
3638,-0.47,-0.06,
3639,-0.37,-0.015,
3640,-0.16,0.05,
3641,0.165,0.145,
3642,0.515,0.315,
3643,0.865,0.515,
3644,1.175,0.73,
3645,1.465,0.99,
3646,1.705,1.245,
3647,1.81,1.435,N
3648,1.78,1.5,
3649,1.56,1.415,
3650,1.15,1.175,
3651,0.585,0.765,
3652,0.085,0.305,
3653,-0.275,-0.115,
3654,-0.445,-0.38,
3655,-0.51,-0.46,
3656,-0.5,-0.42,
3657,-0.435,-0.325,
3658,-0.345,-0.2,
3659,-0.275,-0.08,
3660,-0.28,-0.015,
3661,-0.32,0.015,
3662,-0.35,-0.005,
3663,-0.36,-0.01,
3664,-0.365,-0.01,
3665,-0.37,-0.02,
3666,-0.36,-0.015,
3667,-0.39,-0.025,
3668,-0.415,-0.03,
3669,-0.43,-0.045,
3670,-0.425,-0.025,
3671,-0.42,-0.02,
3672,-0.435,-0.03,
3673,-0.43,-0.04,
3674,-0.45,-0.045,
3675,-0.45,-0.04,
3676,-0.445,-0.045,
3677,-0.445,-0.025,
3678,-0.44,-0.04,
3679,-0.45,-0.03,
3680,-0.46,-0.045,
3681,-0.47,-0.04,
3682,-0.465,-0.025,
3683,-0.45,-0.025,
3684,-0.445,-0.02,
3685,-0.445,-0.03,
3686,-0.44,-0.035,
3687,-0.455,-0.025,
3688,-0.445,-0.03,
3689,-0.43,-0.005,
3690,-0.445,-0.005,
3691,-0.44,-0.01,
3692,-0.445,-0.035,
3693,-0.45,-0.02,
3694,-0.435,-0.025,
3695,-0.43,-0.005,
3696,-0.425,-0.005,
3697,-0.425,-0.01,
3698,-0.445,-0.02,
3699,-0.445,-0.005,
3700,-0.42,0.0,
3701,-0.41,0.005,
3702,-0.4,0.015,
3703,-0.41,-0.005,
3704,-0.405,0.0,
3705,-0.405,0.015,
3706,-0.395,0.025,
3707,-0.38,0.035,
3708,-0.37,0.02,
3709,-0.37,0.02,
3710,-0.365,0.035,
3711,-0.36,0.045,
3712,-0.335,0.06,
3713,-0.325,0.07,
3714,-0.325,0.07,
3715,-0.31,0.07,
3716,-0.3,0.07,
3717,-0.3,0.08,
3718,-0.28,0.1,
3719,-0.26,0.11,
3720,-0.24,0.115,
3721,-0.235,0.12,
3722,-0.23,0.13,
3723,-0.205,0.145,
3724,-0.18,0.155,
3725,-0.155,0.17,
3726,-0.135,0.18,
3727,-0.14,0.19,
3728,-0.135,0.205,
3729,-0.105,0.21,
3730,-0.08,0.24,
3731,-0.06,0.245,
3732,-0.03,0.265,
3733,-0.025,0.26,
3734,-0.005,0.27,
3735,-0.01,0.275,
3736,0.02,0.3,
3737,0.035,0.315,
3738,0.05,0.325,
3739,0.055,0.33,
3740,0.065,0.31,
3741,0.065,0.325,
3742,0.085,0.35,
3743,0.095,0.355,
3744,0.11,0.355,
3745,0.105,0.345,
3746,0.095,0.345,
3747,0.095,0.34,
3748,0.105,0.355,
3749,0.1,0.365,
3750,0.085,0.35,
3751,0.075,0.34,
3752,0.05,0.315,
3753,0.025,0.32,
3754,0.02,0.32,
3755,0.0,0.31,
3756,-0.015,0.29,
3757,-0.05,0.27,
3758,-0.065,0.235,
3759,-0.09,0.235,
3760,-0.11,0.22,
3761,-0.125,0.2,
3762,-0.15,0.185,
3763,-0.175,0.16,
3764,-0.2,0.13,
3765,-0.225,0.13,
3766,-0.235,0.115,
3767,-0.24,0.115,
3768,-0.255,0.09,
3769,-0.27,0.07,
3770,-0.285,0.05,
3771,-0.3,0.06,
3772,-0.29,0.045,
3773,-0.3,0.055,
3774,-0.3,0.045,
3775,-0.31,0.025,
3776,-0.31,0.02,
3777,-0.325,0.015,
3778,-0.31,0.015,
3779,-0.305,0.025,
3780,-0.31,0.015,
3781,-0.325,0.025,
3782,-0.32,0.005,
3783,-0.33,0.015,
3784,-0.33,0.01,
3785,-0.32,0.015,
3786,-0.31,0.015,
3787,-0.315,0.0,
3788,-0.325,-0.01,
3789,-0.325,-0.01,
3790,-0.31,0.01,
3791,-0.305,0.015,
3792,-0.295,0.025,
3793,-0.3,0.01,
3794,-0.31,0.0,
3795,-0.315,0.005,
3796,-0.3,0.025,
3797,-0.295,0.015,
3798,-0.285,0.02,
3799,-0.29,0.01,
3800,-0.295,0.02,
3801,-0.295,0.045,
3802,-0.295,0.06,
3803,-0.29,0.05,
3804,-0.28,0.055,
3805,-0.29,0.04,
3806,-0.3,0.03,
3807,-0.29,0.025,
3808,-0.28,0.045,
3809,-0.27,0.05,
3810,-0.28,0.05,
3811,-0.275,0.045,
3812,-0.275,0.03,
3813,-0.28,0.045,
3814,-0.285,0.055,
3815,-0.27,0.07,
3816,-0.27,0.065,
3817,-0.275,0.05,
3818,-0.29,0.035,
3819,-0.3,0.045,
3820,-0.295,0.055,
3821,-0.29,0.06,
3822,-0.29,0.045,
3823,-0.295,0.04,
3824,-0.31,0.03,
3825,-0.3,0.03,
3826,-0.29,0.04,
3827,-0.275,0.04,
3828,-0.27,0.05,
3829,-0.28,0.035,
3830,-0.295,0.03,
3831,-0.305,0.025,
3832,-0.305,0.035,
3833,-0.3,0.03,
3834,-0.31,0.02,
3835,-0.31,0.005,
3836,-0.33,0.005,
3837,-0.32,0.005,
3838,-0.315,0.015,
3839,-0.315,0.025,
3840,-0.32,0.01,
3841,-0.335,0.0,
3842,-0.335,-0.015,
3843,-0.34,-0.01,
3844,-0.34,-0.005,
3845,-0.33,-0.005,
3846,-0.335,0.0,
3847,-0.34,-0.015,
3848,-0.35,-0.035,
3849,-0.36,-0.025,
3850,-0.36,-0.03,
3851,-0.345,-0.025,
3852,-0.345,-0.015,
3853,-0.37,-0.025,
3854,-0.36,-0.04,
3855,-0.365,-0.025,
3856,-0.36,-0.03,
3857,-0.345,-0.025,
3858,-0.355,-0.025,
3859,-0.365,-0.045,
3860,-0.375,-0.035,
3861,-0.385,-0.035,
3862,-0.37,-0.035,
3863,-0.37,-0.03,
3864,-0.365,-0.035,
3865,-0.375,-0.035,
3866,-0.375,-0.05,
3867,-0.38,-0.04,
3868,-0.38,-0.025,
3869,-0.38,-0.025,
3870,-0.375,-0.025,
3871,-0.37,-0.035,
3872,-0.38,-0.055,
3873,-0.38,-0.04,
3874,-0.365,-0.035,
3875,-0.35,-0.025,
3876,-0.35,-0.03,
3877,-0.34,-0.045,
3878,-0.335,-0.05,
3879,-0.335,-0.05,
3880,-0.315,-0.04,
3881,-0.305,-0.035,
3882,-0.31,-0.035,
3883,-0.295,-0.035,
3884,-0.295,-0.04,
3885,-0.305,-0.03,
3886,-0.29,-0.02,
3887,-0.27,-0.01,
3888,-0.25,-0.01,
3889,-0.27,-0.03,
3890,-0.275,-0.03,
3891,-0.28,-0.035,
3892,-0.26,-0.015,
3893,-0.245,-0.015,
3894,-0.255,-0.02,
3895,-0.27,-0.04,
3896,-0.285,-0.05,
3897,-0.305,-0.055,
3898,-0.315,-0.055,
3899,-0.31,-0.055,
3900,-0.31,-0.065,
3901,-0.32,-0.085,
3902,-0.31,-0.1,
3903,-0.31,-0.085,
3904,-0.305,-0.05,
3905,-0.315,-0.025,
3906,-0.32,-0.01,
3907,-0.345,-0.02,
3908,-0.36,-0.015,
3909,-0.375,-0.035,
3910,-0.375,-0.015,
3911,-0.37,-0.02,
3912,-0.385,-0.03,
3913,-0.4,-0.03,
3914,-0.41,-0.05,
3915,-0.425,-0.05,
3916,-0.41,-0.04,
3917,-0.405,-0.03,
3918,-0.42,-0.045,
3919,-0.43,-0.055,
3920,-0.44,-0.07,
3921,-0.445,-0.07,
3922,-0.425,-0.065,
3923,-0.425,-0.055,
3924,-0.425,-0.04,
3925,-0.43,-0.05,
3926,-0.44,-0.055,
3927,-0.44,-0.045,
3928,-0.44,-0.035,
3929,-0.425,-0.035,
3930,-0.43,-0.025,
3931,-0.415,-0.04,
3932,-0.43,-0.05,
3933,-0.435,-0.045,
3934,-0.435,-0.03,
3935,-0.43,-0.025,
3936,-0.43,-0.025,
3937,-0.43,-0.045,
3938,-0.44,-0.05,
3939,-0.45,-0.03,
3940,-0.47,-0.025,
3941,-0.51,-0.025,
3942,-0.565,-0.04,
3943,-0.58,-0.065,
3944,-0.565,-0.06,
3945,-0.51,-0.025,
3946,-0.42,0.02,
3947,-0.29,0.06,
3948,-0.05,0.135,
3949,0.28,0.27,
3950,0.615,0.455,
3951,0.93,0.69,
3952,1.215,0.89,
3953,1.45,1.1,
3954,1.58,1.285,N
3955,1.62,1.395,
3956,1.52,1.39,
3957,1.25,1.275,
3958,0.83,1.02,
3959,0.385,0.65,
3960,0.0,0.235,
3961,-0.3,-0.115,
3962,-0.47,-0.34,
3963,-0.545,-0.425,
3964,-0.55,-0.4,
3965,-0.505,-0.32,
3966,-0.42,-0.235,
3967,-0.35,-0.125,
3968,-0.335,-0.04,
3969,-0.36,0.02,
3970,-0.385,0.045,
3971,-0.395,0.03,
3972,-0.405,0.02,
3973,-0.405,-0.005,
3974,-0.415,-0.015,
3975,-0.41,0.0,
3976,-0.415,0.005,
3977,-0.425,0.015,
3978,-0.44,0.01,
3979,-0.45,0.0,
3980,-0.455,-0.02,
3981,-0.47,-0.02,
3982,-0.455,0.0,
3983,-0.46,0.01,
3984,-0.46,-0.005,
3985,-0.465,-0.015,
3986,-0.47,-0.015,
3987,-0.47,-0.015,
3988,-0.475,-0.005,
3989,-0.47,0.005,
3990,-0.46,0.0,
3991,-0.48,0.005,
3992,-0.485,-0.015,
3993,-0.49,-0.015,
3994,-0.485,0.005,
3995,-0.47,0.005,
3996,-0.47,0.0,
3997,-0.47,-0.005,
3998,-0.47,-0.005,
3999,-0.47,0.01,
4000,-0.475,0.0,
4001,-0.455,0.02,
4002,-0.465,0.015,
4003,-0.46,0.0,
4004,-0.47,-0.005,
4005,-0.47,0.005,
4006,-0.465,0.015,
4007,-0.455,0.03,
4008,-0.445,0.02,
4009,-0.45,0.02,
4010,-0.455,0.005,
4011,-0.455,0.01,
4012,-0.44,0.025,
4013,-0.43,0.04,
4014,-0.43,0.045,
4015,-0.425,0.045,
4016,-0.43,0.03,
4017,-0.435,0.035,
4018,-0.415,0.05,
4019,-0.405,0.07,
4020,-0.38,0.055,
4021,-0.385,0.07,
4022,-0.385,0.065,
4023,-0.375,0.08,
4024,-0.365,0.09,
4025,-0.34,0.095,
4026,-0.335,0.11,
4027,-0.345,0.105,
4028,-0.325,0.105,
4029,-0.305,0.115,
4030,-0.29,0.135,
4031,-0.27,0.15,
4032,-0.255,0.165,
4033,-0.25,0.16,
4034,-0.235,0.17,
4035,-0.215,0.19,
4036,-0.185,0.2,
4037,-0.175,0.2,
4038,-0.155,0.2,
4039,-0.145,0.215,
4040,-0.135,0.22,
4041,-0.115,0.24,
4042,-0.1,0.255,
4043,-0.07,0.265,
4044,-0.06,0.285,
4045,-0.05,0.275,
4046,-0.04,0.28,
4047,-0.03,0.29,
4048,-0.015,0.3,
4049,0.005,0.32,
4050,0.02,0.33,
4051,0.03,0.32,
4052,0.025,0.31,
4053,0.03,0.34,
4054,0.045,0.335,
4055,0.055,0.36,
4056,0.045,0.35,
4057,0.045,0.355,
4058,0.045,0.345,
4059,0.025,0.355,
4060,0.035,0.345,
4061,0.035,0.355,
4062,0.03,0.335,
4063,0.01,0.32,
4064,-0.02,0.31,
4065,-0.035,0.3,
4066,-0.05,0.3,
4067,-0.05,0.29,
4068,-0.075,0.275,
4069,-0.1,0.255,
4070,-0.125,0.22,
4071,-0.165,0.225,
4072,-0.155,0.205,
4073,-0.17,0.2,
4074,-0.19,0.19,
4075,-0.22,0.155,
4076,-0.235,0.13,
4077,-0.245,0.11,
4078,-0.235,0.125,
4079,-0.25,0.11,
4080,-0.26,0.11,
4081,-0.27,0.085,
4082,-0.285,0.06,
4083,-0.295,0.065,
4084,-0.295,0.06,
4085,-0.29,0.065,
4086,-0.295,0.065,
4087,-0.29,0.045,
4088,-0.31,0.035,
4089,-0.31,0.03,
4090,-0.31,0.045,
4091,-0.315,0.045,
4092,-0.305,0.05,
4093,-0.305,0.025,
4094,-0.325,0.015,
4095,-0.335,0.03,
4096,-0.33,0.04,
4097,-0.325,0.025,
4098,-0.31,0.03,
4099,-0.315,0.025,
4100,-0.315,0.02,
4101,-0.33,0.025,
4102,-0.32,0.035,
4103,-0.305,0.035,
4104,-0.31,0.035,
4105,-0.3,0.04,
4106,-0.31,0.025,
4107,-0.315,0.025,
4108,-0.295,0.045,
4109,-0.29,0.045,
4110,-0.285,0.06,
4111,-0.295,0.03,
4112,-0.295,0.03,
4113,-0.3,0.045,
4114,-0.295,0.045,
4115,-0.28,0.065,
4116,-0.28,0.065,
4117,-0.285,0.045,
4118,-0.285,0.045,
4119,-0.29,0.06,
4120,-0.275,0.075,
4121,-0.28,0.075,
4122,-0.27,0.065,
4123,-0.26,0.06,
4124,-0.265,0.045,
4125,-0.275,0.06,
4126,-0.27,0.08,
4127,-0.255,0.085,
4128,-0.245,0.08,
4129,-0.26,0.08,
4130,-0.275,0.065,
4131,-0.27,0.06,
4132,-0.27,0.08,
4133,-0.26,0.07,
4134,-0.265,0.08,
4135,-0.275,0.065,
4136,-0.275,0.05,
4137,-0.28,0.06,
4138,-0.275,0.075,
4139,-0.26,0.085,
4140,-0.26,0.08,
4141,-0.265,0.07,
4142,-0.285,0.06,
4143,-0.295,0.055,
4144,-0.295,0.065,
4145,-0.275,0.07,
4146,-0.28,0.065,
4147,-0.29,0.05,
4148,-0.31,0.045,
4149,-0.32,0.045,
4150,-0.32,0.055,
4151,-0.295,0.06,
4152,-0.295,0.045,
4153,-0.305,0.055,
4154,-0.315,0.03,
4155,-0.315,0.02,
4156,-0.32,0.04,
4157,-0.32,0.035,
4158,-0.31,0.025,
4159,-0.33,0.03,
4160,-0.345,0.01,
4161,-0.34,0.005,
4162,-0.345,0.02,
4163,-0.335,0.015,
4164,-0.335,0.01,
4165,-0.345,0.01,
4166,-0.37,-0.015,
4167,-0.355,0.0,
4168,-0.36,0.0,
4169,-0.355,0.01,
4170,-0.35,0.005,
4171,-0.355,-0.015,
4172,-0.37,-0.02,
4173,-0.37,-0.02,
4174,-0.37,-0.01,
4175,-0.355,-0.005,
4176,-0.36,0.0,
4177,-0.37,-0.02,
4178,-0.375,-0.035,
4179,-0.38,-0.02,
4180,-0.37,-0.02,
4181,-0.365,-0.015,
4182,-0.365,0.0,
4183,-0.37,-0.025,
4184,-0.385,-0.03,
4185,-0.4,-0.03,
4186,-0.38,-0.01,
4187,-0.375,-0.015,
4188,-0.37,-0.02,
4189,-0.375,-0.025,
4190,-0.385,-0.04,
4191,-0.4,-0.04,
4192,-0.39,-0.03,
4193,-0.38,-0.025,
4194,-0.39,-0.025,
4195,-0.385,-0.04,
4196,-0.395,-0.035,
4197,-0.4,-0.025,
4198,-0.375,-0.035,
4199,-0.37,-0.025,
4200,-0.345,-0.025,
4201,-0.35,-0.035,
4202,-0.335,-0.04,
4203,-0.325,-0.025,
4204,-0.315,-0.015,
4205,-0.31,-0.015,
4206,-0.31,-0.01,
4207,-0.31,-0.025,
4208,-0.31,-0.035,
4209,-0.315,-0.03,
4210,-0.29,-0.005,
4211,-0.28,-0.005,
4212,-0.28,0.0,
4213,-0.285,-0.02,
4214,-0.285,-0.04,
4215,-0.29,-0.035,
4216,-0.27,-0.025,
4217,-0.26,0.0,
4218,-0.26,-0.015,
4219,-0.27,-0.015,
4220,-0.29,-0.03,
4221,-0.29,-0.025,
4222,-0.3,-0.03,
4223,-0.295,-0.035,
4224,-0.315,-0.05,
4225,-0.33,-0.06,
4226,-0.33,-0.08,
4227,-0.335,-0.07,
4228,-0.31,-0.07,
4229,-0.305,-0.055,
4230,-0.315,-0.03,
4231,-0.335,-0.03,
4232,-0.36,-0.02,
4233,-0.355,-0.02,
4234,-0.365,-0.005,
4235,-0.38,-0.005,
4236,-0.38,0.005,
4237,-0.395,-0.02,
4238,-0.415,-0.025,
4239,-0.425,-0.03,
4240,-0.415,-0.035,
4241,-0.42,-0.035,
4242,-0.43,-0.035,
4243,-0.445,-0.045,
4244,-0.445,-0.055,
4245,-0.455,-0.065,
4246,-0.45,-0.045,
4247,-0.44,-0.035,
4248,-0.445,-0.04,
4249,-0.46,-0.05,
4250,-0.46,-0.06,
4251,-0.475,-0.05,
4252,-0.465,-0.045,
4253,-0.455,-0.05,
4254,-0.445,-0.035,
4255,-0.465,-0.045,
4256,-0.465,-0.055,
4257,-0.46,-0.045,
4258,-0.455,-0.045,
4259,-0.445,-0.035,
4260,-0.445,-0.035,
4261,-0.455,-0.04,
4262,-0.46,-0.055,
4263,-0.46,-0.04,
4264,-0.455,-0.045,
4265,-0.455,-0.04,
4266,-0.465,-0.035,
4267,-0.49,-0.045,
4268,-0.55,-0.06,
4269,-0.625,-0.07,
4270,-0.645,-0.07,
4271,-0.63,-0.07,
4272,-0.595,-0.055,
4273,-0.535,-0.03,
4274,-0.48,-0.01,
4275,-0.36,0.035,
4276,-0.145,0.095,
4277,0.185,0.205,
4278,0.53,0.375,
4279,0.875,0.59,
4280,1.19,0.815,
4281,1.47,1.085,
4282,1.69,1.345,N
4283,1.77,1.525,
4284,1.705,1.56,
4285,1.44,1.43,
4286,0.99,1.145,
4287,0.445,0.735,
4288,-0.025,0.29,
4289,-0.33,-0.075,
4290,-0.49,-0.33,
4291,-0.535,-0.44,
4292,-0.545,-0.445,
4293,-0.52,-0.375,
4294,-0.445,-0.265,
4295,-0.355,-0.145,
4296,-0.32,-0.055,
4297,-0.34,0.0,
4298,-0.385,0.02,
4299,-0.4,0.005,
4300,-0.415,0.015,
4301,-0.405,0.01,
4302,-0.415,0.0,
4303,-0.42,-0.015,
4304,-0.44,-0.02,
4305,-0.445,-0.01,
4306,-0.465,-0.02,
4307,-0.46,-0.015,
4308,-0.48,-0.02,
4309,-0.475,-0.03,
4310,-0.49,-0.025,
4311,-0.49,-0.03,
4312,-0.485,-0.005,
4313,-0.485,-0.01,
4314,-0.5,-0.025,
4315,-0.49,-0.025,
4316,-0.5,-0.035,
4317,-0.505,-0.03,
4318,-0.505,-0.02,
4319,-0.495,-0.02,
4320,-0.495,-0.01,
4321,-0.495,-0.01,
4322,-0.505,-0.025,
4323,-0.515,-0.02,
4324,-0.495,-0.01,
4325,-0.49,-0.005,
4326,-0.5,-0.005,
4327,-0.495,-0.01,
4328,-0.5,-0.015,
4329,-0.5,-0.005,
4330,-0.49,-0.005,
4331,-0.485,0.0,
4332,-0.485,0.005,
4333,-0.485,0.005,
4334,-0.49,-0.01,
4335,-0.49,0.0,
4336,-0.475,0.01,
4337,-0.465,0.015,
4338,-0.47,0.015,
4339,-0.47,0.01,
4340,-0.47,-0.005,
4341,-0.475,0.015,
4342,-0.465,0.015,
4343,-0.45,0.03,
4344,-0.445,0.025,
4345,-0.445,0.025,
4346,-0.445,0.02,
4347,-0.44,0.025,
4348,-0.435,0.035,
4349,-0.415,0.055,
4350,-0.405,0.045,
4351,-0.4,0.04,
4352,-0.41,0.05,
4353,-0.4,0.055,
4354,-0.385,0.07,
4355,-0.365,0.09,
4356,-0.345,0.09,
4357,-0.345,0.085,
4358,-0.34,0.075,
4359,-0.325,0.085,
4360,-0.3,0.11,
4361,-0.285,0.12,
4362,-0.265,0.13,
4363,-0.26,0.13,
4364,-0.26,0.145,
4365,-0.24,0.16,
4366,-0.21,0.185,
4367,-0.195,0.195,
4368,-0.175,0.205,
4369,-0.16,0.205,
4370,-0.14,0.205,
4371,-0.145,0.215,
4372,-0.12,0.245,
4373,-0.1,0.26,
4374,-0.075,0.28,
4375,-0.065,0.27,
4376,-0.055,0.27,
4377,-0.04,0.275,
4378,-0.02,0.295,
4379,-0.01,0.31,
4380,0.01,0.315,
4381,0.015,0.32,
4382,0.025,0.3,
4383,0.025,0.33,
4384,0.035,0.345,
4385,0.045,0.35,
4386,0.04,0.35,
4387,0.055,0.34,
4388,0.04,0.33,
4389,0.045,0.335,
4390,0.045,0.345,
4391,0.05,0.34,
4392,0.035,0.325,
4393,0.025,0.3,
4394,0.005,0.295,
4395,-0.035,0.29,
4396,-0.025,0.295,
4397,-0.05,0.285,
4398,-0.06,0.265,
4399,-0.08,0.245,
4400,-0.12,0.225,
4401,-0.145,0.215,
4402,-0.17,0.21,
4403,-0.17,0.2,
4404,-0.195,0.19,
4405,-0.22,0.16,
4406,-0.235,0.13,
4407,-0.265,0.13,
4408,-0.275,0.115,
4409,-0.27,0.12,
4410,-0.29,0.1,
4411,-0.29,0.07,
4412,-0.31,0.06,
4413,-0.335,0.055,
4414,-0.325,0.055,
4415,-0.335,0.055,
4416,-0.34,0.05,
4417,-0.345,0.035,
4418,-0.355,0.02,
4419,-0.355,0.01,
4420,-0.355,0.01,
4421,-0.355,0.015,
4422,-0.37,0.01,
4423,-0.355,0.005,
4424,-0.365,-0.005,
4425,-0.365,0.015,
4426,-0.365,0.02,
4427,-0.345,0.02,
4428,-0.36,0.015,
4429,-0.35,0.005,
4430,-0.36,-0.005,
4431,-0.365,0.005,
4432,-0.355,0.02,
4433,-0.34,0.02,
4434,-0.35,0.015,
4435,-0.345,0.01,
4436,-0.355,0.01,
4437,-0.36,0.02,
4438,-0.36,0.025,
4439,-0.34,0.035,
4440,-0.335,0.03,
4441,-0.325,0.015,
4442,-0.34,0.015,
4443,-0.345,0.02,
4444,-0.335,0.035,
4445,-0.325,0.04,
4446,-0.335,0.05,
4447,-0.325,0.04,
4448,-0.335,0.035,
4449,-0.325,0.035,
4450,-0.32,0.04,
4451,-0.31,0.05,
4452,-0.325,0.055,
4453,-0.315,0.05,
4454,-0.325,0.04,
4455,-0.335,0.05,
4456,-0.315,0.055,
4457,-0.32,0.06,
4458,-0.305,0.06,
4459,-0.305,0.05,
4460,-0.325,0.035,
4461,-0.33,0.045,
4462,-0.315,0.065,
4463,-0.32,0.05,
4464,-0.315,0.06,
4465,-0.325,0.045,
4466,-0.335,0.045,
4467,-0.34,0.045,
4468,-0.33,0.05,
4469,-0.325,0.05,
4470,-0.34,0.045,
4471,-0.34,0.03,
4472,-0.35,0.015,
4473,-0.36,0.02,
4474,-0.345,0.03,
4475,-0.345,0.035,
4476,-0.335,0.04,
4477,-0.35,0.015,
4478,-0.365,0.005,
4479,-0.36,0.005,
4480,-0.375,0.015,
4481,-0.36,0.01,
4482,-0.355,0.005,
4483,-0.38,-0.015,
4484,-0.39,-0.015,
4485,-0.38,-0.01,
4486,-0.385,-0.015,
4487,-0.385,-0.015,
4488,-0.385,-0.01,
4489,-0.405,-0.02,
4490,-0.415,-0.04,
4491,-0.4,-0.03,
4492,-0.405,-0.02,
4493,-0.4,-0.025,
4494,-0.405,-0.02,
4495,-0.405,-0.04,
4496,-0.415,-0.045,
4497,-0.42,-0.04,
4498,-0.42,-0.035,
4499,-0.41,-0.03,
4500,-0.405,-0.025,
4501,-0.425,-0.045,
4502,-0.425,-0.06,
4503,-0.43,-0.045,
4504,-0.415,-0.04,
4505,-0.42,-0.035,
4506,-0.41,-0.045,
4507,-0.405,-0.035,
4508,-0.415,-0.05,
4509,-0.43,-0.055,
4510,-0.415,-0.055,
4511,-0.42,-0.05,
4512,-0.41,-0.04,
4513,-0.415,-0.06,
4514,-0.42,-0.06,
4515,-0.42,-0.055,
4516,-0.42,-0.05,
4517,-0.405,-0.04,
4518,-0.42,-0.05,
4519,-0.425,-0.06,
4520,-0.43,-0.07,
4521,-0.435,-0.06,
4522,-0.42,-0.055,
4523,-0.41,-0.055,
4524,-0.4,-0.045,
4525,-0.41,-0.055,
4526,-0.415,-0.07,
4527,-0.41,-0.05,
4528,-0.395,-0.055,
4529,-0.37,-0.055,
4530,-0.355,-0.05,
4531,-0.355,-0.06,
4532,-0.355,-0.055,
4533,-0.355,-0.055,
4534,-0.355,-0.04,
4535,-0.33,-0.035,
4536,-0.33,-0.03,
4537,-0.325,-0.04,
4538,-0.32,-0.05,
4539,-0.325,-0.04,
4540,-0.3,-0.04,
4541,-0.3,-0.04,
4542,-0.3,-0.03,
4543,-0.29,-0.04,
4544,-0.29,-0.05,
4545,-0.305,-0.04,
4546,-0.295,-0.035,
4547,-0.31,-0.035,
4548,-0.305,-0.045,
4549,-0.325,-0.05,
4550,-0.335,-0.07,
4551,-0.36,-0.085,
4552,-0.36,-0.095,
4553,-0.36,-0.1,
4554,-0.355,-0.095,
4555,-0.345,-0.105,
4556,-0.34,-0.09,
4557,-0.355,-0.065,
4558,-0.36,-0.035,
4559,-0.365,-0.02,
4560,-0.38,-0.025,
4561,-0.395,-0.045,
4562,-0.41,-0.06,
4563,-0.425,-0.055,
4564,-0.425,-0.045,
4565,-0.42,-0.05,
4566,-0.435,-0.055,
4567,-0.44,-0.06,
4568,-0.46,-0.08,
4569,-0.465,-0.06,
4570,-0.475,-0.06,
4571,-0.46,-0.07,
4572,-0.465,-0.085,
4573,-0.48,-0.085,
4574,-0.48,-0.085,
4575,-0.475,-0.085,
4576,-0.48,-0.08,
4577,-0.475,-0.06,
4578,-0.475,-0.065,
4579,-0.48,-0.07,
4580,-0.475,-0.085,
4581,-0.485,-0.075,
4582,-0.485,-0.06,
4583,-0.475,-0.055,
4584,-0.475,-0.065,
4585,-0.475,-0.065,
4586,-0.49,-0.085,
4587,-0.495,-0.08,
4588,-0.475,-0.075,
4589,-0.465,-0.06,
4590,-0.48,-0.07,
4591,-0.48,-0.075,
4592,-0.49,-0.08,
4593,-0.49,-0.07,
4594,-0.49,-0.07,
4595,-0.5,-0.055,
4596,-0.555,-0.075,
4597,-0.625,-0.095,
4598,-0.665,-0.115,
4599,-0.655,-0.115,
4600,-0.59,-0.085,
4601,-0.51,-0.035,
4602,-0.42,0.0,
4603,-0.22,0.04,
4604,0.075,0.135,
4605,0.45,0.31,
4606,0.825,0.555,
4607,1.165,0.805,
4608,1.465,1.055,
4609,1.66,1.295,N
4610,1.75,1.465,
4611,1.705,1.53,
4612,1.465,1.435,
4613,1.015,1.15,
4614,0.45,0.695,
4615,-0.055,0.195,
4616,-0.39,-0.19,
4617,-0.535,-0.42,
4618,-0.565,-0.5,
4619,-0.565,-0.465,
4620,-0.545,-0.39,
4621,-0.48,-0.3,
4622,-0.41,-0.195,
4623,-0.38,-0.1,
4624,-0.39,-0.02,
4625,-0.42,0.01,
4626,-0.435,0.0,
4627,-0.45,-0.02,
4628,-0.455,-0.045,
4629,-0.475,-0.03,
4630,-0.47,-0.02,
4631,-0.465,-0.01,
4632,-0.47,-0.035,
4633,-0.5,-0.05,
4634,-0.505,-0.055,
4635,-0.515,-0.05,
4636,-0.515,-0.035,
4637,-0.515,-0.045,
4638,-0.51,-0.045,
4639,-0.52,-0.055,
4640,-0.535,-0.055,
4641,-0.53,-0.055,
4642,-0.535,-0.04,
4643,-0.52,-0.03,
4644,-0.515,-0.035,
4645,-0.525,-0.04,
4646,-0.54,-0.055,
4647,-0.535,-0.05,
4648,-0.53,-0.035,
4649,-0.515,-0.015,
4650,-0.52,-0.03,
4651,-0.535,-0.035,
4652,-0.54,-0.04,
4653,-0.535,-0.035,
4654,-0.515,-0.03,
4655,-0.515,-0.02,
4656,-0.52,-0.015,
4657,-0.52,-0.035,
4658,-0.53,-0.04,
4659,-0.52,-0.03,
4660,-0.52,-0.01,
4661,-0.495,0.0,
4662,-0.5,-0.01,
4663,-0.495,-0.02,
4664,-0.5,-0.015,
4665,-0.515,-0.015,
4666,-0.5,0.005,
4667,-0.475,0.015,
4668,-0.47,0.01,
4669,-0.455,0.005,
4670,-0.46,-0.01,
4671,-0.475,0.015,
4672,-0.455,0.035,
4673,-0.44,0.045,
4674,-0.43,0.035,
4675,-0.43,0.025,
4676,-0.42,0.035,
4677,-0.415,0.045,
4678,-0.395,0.075,
4679,-0.365,0.075,
4680,-0.355,0.09,
4681,-0.36,0.085,
4682,-0.345,0.095,
4683,-0.325,0.095,
4684,-0.3,0.13,
4685,-0.27,0.13,
4686,-0.26,0.16,
4687,-0.25,0.155,
4688,-0.235,0.15,
4689,-0.22,0.17,
4690,-0.19,0.18,
4691,-0.175,0.2,
4692,-0.155,0.215,
4693,-0.14,0.21,
4694,-0.135,0.22,
4695,-0.125,0.23,
4696,-0.1,0.255,
4697,-0.075,0.26,
4698,-0.075,0.27,
4699,-0.065,0.265,
4700,-0.045,0.27,
4701,-0.045,0.285,
4702,-0.015,0.3,
4703,0.0,0.315,
4704,0.005,0.31,
4705,0.005,0.315,
4706,0.01,0.315,
4707,0.02,0.315,
4708,0.025,0.325,
4709,0.03,0.34,
4710,0.02,0.325,
4711,0.015,0.32,
4712,0.005,0.3,
4713,-0.01,0.295,
4714,-0.015,0.3,
4715,-0.025,0.29,
4716,-0.04,0.28,
4717,-0.07,0.27,
4718,-0.1,0.225,
4719,-0.12,0.235,
4720,-0.135,0.225,
4721,-0.16,0.21,
4722,-0.18,0.2,
4723,-0.21,0.18,
4724,-0.235,0.15,
4725,-0.265,0.14,
4726,-0.27,0.125,
4727,-0.275,0.125,
4728,-0.295,0.095,
4729,-0.32,0.08,
4730,-0.34,0.06,
4731,-0.345,0.055,
4732,-0.34,0.055,
4733,-0.34,0.05,
4734,-0.355,0.03,
4735,-0.365,0.025,
4736,-0.37,0.025,
4737,-0.385,0.03,
4738,-0.38,0.03,
4739,-0.38,0.025,
4740,-0.375,0.02,
4741,-0.38,0.005,
4742,-0.385,0.005,
4743,-0.39,0.0,
4744,-0.395,0.005,
4745,-0.375,0.01,
4746,-0.37,0.02,
4747,-0.38,0.0,
4748,-0.395,-0.005,
4749,-0.4,-0.015,
4750,-0.38,0.02,
4751,-0.375,0.01,
4752,-0.365,0.015,
4753,-0.375,0.015,
4754,-0.375,-0.005,
4755,-0.38,0.01,
4756,-0.365,0.02,
4757,-0.365,0.025,
4758,-0.35,0.025,
4759,-0.35,0.03,
4760,-0.355,0.025,
4761,-0.36,0.025,
4762,-0.35,0.03,
4763,-0.335,0.05,
4764,-0.335,0.04,
4765,-0.345,0.03,
4766,-0.345,0.03,
4767,-0.345,0.045,
4768,-0.335,0.045,
4769,-0.33,0.055,
4770,-0.32,0.05,
4771,-0.33,0.055,
4772,-0.33,0.03,
4773,-0.335,0.05,
4774,-0.335,0.055,
4775,-0.32,0.07,
4776,-0.32,0.05,
4777,-0.33,0.035,
4778,-0.335,0.04,
4779,-0.35,0.045,
4780,-0.34,0.045,
4781,-0.335,0.05,
4782,-0.33,0.045,
4783,-0.335,0.05,
4784,-0.355,0.025,
4785,-0.35,0.035,
4786,-0.345,0.04,
4787,-0.36,0.035,
4788,-0.355,0.025,
4789,-0.365,0.015,
4790,-0.365,0.015,
4791,-0.375,0.02,
4792,-0.375,0.015,
4793,-0.36,0.02,
4794,-0.375,0.01,
4795,-0.385,0.0,
4796,-0.385,-0.01,
4797,-0.41,-0.005,
4798,-0.405,0.0,
4799,-0.39,0.0,
4800,-0.395,-0.005,
4801,-0.405,-0.015,
4802,-0.405,-0.035,
4803,-0.4,-0.025,
4804,-0.395,-0.01,
4805,-0.405,-0.01,
4806,-0.39,-0.025,
4807,-0.405,-0.03,
4808,-0.42,-0.045,
4809,-0.42,-0.035,
4810,-0.4,-0.035,
4811,-0.41,-0.03,
4812,-0.41,-0.03,
4813,-0.415,-0.04,
4814,-0.435,-0.055,
4815,-0.43,-0.05,
4816,-0.42,-0.045,
4817,-0.42,-0.035,
4818,-0.425,-0.05,
4819,-0.425,-0.06,
4820,-0.44,-0.07,
4821,-0.435,-0.06,
4822,-0.43,-0.045,
4823,-0.43,-0.04,
4824,-0.42,-0.05,
4825,-0.425,-0.055,
4826,-0.435,-0.065,
4827,-0.445,-0.06,
4828,-0.435,-0.05,
4829,-0.42,-0.045,
4830,-0.425,-0.045,
4831,-0.43,-0.05,
4832,-0.435,-0.065,
4833,-0.455,-0.05,
4834,-0.43,-0.035,
4835,-0.425,-0.035,
4836,-0.42,-0.055,
4837,-0.425,-0.06,
4838,-0.43,-0.07,
4839,-0.44,-0.07,
4840,-0.435,-0.05,
4841,-0.415,-0.04,
4842,-0.435,-0.055,
4843,-0.43,-0.055,
4844,-0.435,-0.055,
4845,-0.44,-0.05,
4846,-0.425,-0.06,
4847,-0.41,-0.04,
4848,-0.425,-0.045,
4849,-0.43,-0.055,
4850,-0.425,-0.055,
4851,-0.425,-0.055,
4852,-0.425,-0.045,
4853,-0.4,-0.04,
4854,-0.395,-0.04,
4855,-0.37,-0.04,
4856,-0.375,-0.05,
4857,-0.38,-0.045,
4858,-0.36,-0.04,
4859,-0.34,-0.03,
4860,-0.335,-0.02,
4861,-0.335,-0.04,
4862,-0.33,-0.035,
4863,-0.33,-0.03,
4864,-0.33,-0.03,
4865,-0.31,-0.025,
4866,-0.295,-0.035,
4867,-0.3,-0.045,
4868,-0.31,-0.055,
4869,-0.31,-0.05,
4870,-0.3,-0.03,
4871,-0.305,-0.03,
4872,-0.3,-0.035,
4873,-0.315,-0.055,
4874,-0.335,-0.07,
4875,-0.355,-0.085,
4876,-0.35,-0.075,
4877,-0.355,-0.07,
4878,-0.355,-0.09,
4879,-0.34,-0.09,
4880,-0.34,-0.095,
4881,-0.34,-0.06,
4882,-0.34,-0.04,
4883,-0.34,-0.01,
4884,-0.36,-0.02,
4885,-0.375,-0.035,
4886,-0.395,-0.045,
4887,-0.405,-0.035,
4888,-0.395,-0.025,
4889,-0.4,-0.02,
4890,-0.405,-0.03,
4891,-0.42,-0.055,
4892,-0.425,-0.06,
4893,-0.445,-0.05,
4894,-0.45,-0.045,
4895,-0.435,-0.04,
4896,-0.44,-0.05,
4897,-0.45,-0.065,
4898,-0.45,-0.055,
4899,-0.46,-0.055,
4900,-0.45,-0.055,
4901,-0.445,-0.05,
4902,-0.45,-0.045,
4903,-0.445,-0.045,
4904,-0.455,-0.06,
4905,-0.46,-0.04,
4906,-0.46,-0.03,
4907,-0.445,-0.02,
4908,-0.445,-0.02,
4909,-0.445,-0.035,
4910,-0.465,-0.05,
4911,-0.455,-0.045,
4912,-0.455,-0.03,
4913,-0.445,-0.015,
4914,-0.445,-0.02,
4915,-0.44,-0.03,
4916,-0.465,-0.04,
4917,-0.465,-0.035,
4918,-0.445,-0.02,
4919,-0.43,-0.015,
4920,-0.425,-0.01,
4921,-0.43,-0.025,
4922,-0.445,-0.025,
4923,-0.44,-0.01,
4924,-0.435,0.005,
4925,-0.445,-0.005,
4926,-0.485,-0.005,
4927,-0.56,-0.03,
4928,-0.6,-0.05,
4929,-0.585,-0.03,
4930,-0.515,0.015,
4931,-0.415,0.05,
4932,-0.295,0.095,
4933,-0.04,0.155,
4934,0.315,0.29,
4935,0.725,0.53,
4936,1.125,0.8,
4937,1.475,1.08,
4938,1.735,1.36,
4939,1.83,1.555,N
4940,1.74,1.555,
4941,1.405,1.365,
4942,0.825,0.975,
4943,0.26,0.44,
4944,-0.215,-0.03,
4945,-0.455,-0.335,
4946,-0.525,-0.42,
4947,-0.535,-0.375,
4948,-0.49,-0.275,
4949,-0.39,-0.16,
4950,-0.315,-0.045,
4951,-0.305,0.015,
4952,-0.345,0.055,
4953,-0.38,0.06,
4954,-0.38,0.05,
4955,-0.38,0.045,
4956,-0.37,0.05,
4957,-0.385,0.035,
4958,-0.405,0.035,
4959,-0.43,0.04,
4960,-0.455,0.045,
4961,-0.425,0.04,
4962,-0.44,0.04,
4963,-0.445,0.025,
4964,-0.44,0.015,
4965,-0.455,0.015,
4966,-0.45,0.035,
4967,-0.43,0.05,
4968,-0.43,0.045,
4969,-0.445,0.04,
4970,-0.45,0.03,
4971,-0.455,0.035,
4972,-0.44,0.045,
4973,-0.435,0.06,
4974,-0.425,0.05,
4975,-0.43,0.045,
4976,-0.44,0.04,
4977,-0.44,0.055,
4978,-0.435,0.06,
4979,-0.42,0.07,
4980,-0.41,0.07,
4981,-0.415,0.065,
4982,-0.43,0.05,
4983,-0.43,0.065,
4984,-0.41,0.07,
4985,-0.4,0.08,
4986,-0.385,0.08,
4987,-0.4,0.07,
4988,-0.395,0.075,
4989,-0.4,0.08,
4990,-0.385,0.1,
4991,-0.37,0.11,
4992,-0.36,0.1,
4993,-0.36,0.095,
4994,-0.36,0.1,
4995,-0.365,0.11,
4996,-0.335,0.125,
4997,-0.32,0.135,
4998,-0.305,0.14,
4999,-0.305,0.13,
5000,-0.305,0.13,
5001,-0.295,0.145,
5002,-0.28,0.16,
5003,-0.25,0.175,
5004,-0.23,0.185,
5005,-0.225,0.175,
5006,-0.21,0.195,
5007,-0.205,0.21,
5008,-0.175,0.225,
5009,-0.155,0.245,
5010,-0.125,0.26,
5011,-0.115,0.25,
5012,-0.105,0.26,
5013,-0.095,0.28,
5014,-0.06,0.305,
5015,-0.03,0.33,
5016,-0.005,0.345,
5017,-0.01,0.33,
5018,0.015,0.335,
5019,0.02,0.33,
5020,0.04,0.35,
5021,0.07,0.37,
5022,0.08,0.38,
5023,0.085,0.37,
5024,0.095,0.38,
5025,0.095,0.38,
5026,0.105,0.415,
5027,0.135,0.415,
5028,0.14,0.41,
5029,0.14,0.41,
5030,0.135,0.41,
5031,0.125,0.415,
5032,0.13,0.42,
5033,0.13,0.425,
5034,0.135,0.42,
5035,0.115,0.41,
5036,0.09,0.385,
5037,0.075,0.385,
5038,0.075,0.39,
5039,0.06,0.39,
5040,0.045,0.375,
5041,0.03,0.355,
5042,-0.005,0.34,
5043,-0.04,0.325,
5044,-0.06,0.325,
5045,-0.065,0.3,
5046,-0.09,0.295,
5047,-0.115,0.26,
5048,-0.13,0.24,
5049,-0.16,0.23,
5050,-0.16,0.235,
5051,-0.17,0.215,
5052,-0.18,0.205,
5053,-0.185,0.2,
5054,-0.21,0.175,
5055,-0.22,0.175,
5056,-0.22,0.175,
5057,-0.22,0.17,
5058,-0.225,0.165,
5059,-0.24,0.145,
5060,-0.245,0.14,
5061,-0.25,0.16,
5062,-0.245,0.155,
5063,-0.23,0.145,
5064,-0.235,0.15,
5065,-0.235,0.14,
5066,-0.25,0.14,
5067,-0.25,0.13,
5068,-0.23,0.145,
5069,-0.225,0.15,
5070,-0.215,0.16,
5071,-0.225,0.145,
5072,-0.235,0.15,
5073,-0.235,0.15,
5074,-0.235,0.155,
5075,-0.22,0.175,
5076,-0.215,0.17,
5077,-0.22,0.16,
5078,-0.22,0.16,
5079,-0.225,0.155,
5080,-0.2,0.17,
5081,-0.205,0.18,
5082,-0.2,0.175,
5083,-0.195,0.175,
5084,-0.21,0.165,
5085,-0.21,0.185,
5086,-0.195,0.185,
5087,-0.185,0.19,
5088,-0.175,0.195,
5089,-0.185,0.185,
5090,-0.185,0.19,
5091,-0.185,0.2,
5092,-0.19,0.205,
5093,-0.18,0.215,
5094,-0.175,0.205,
5095,-0.17,0.205,
5096,-0.18,0.2,
5097,-0.185,0.195,
5098,-0.175,0.215,
5099,-0.19,0.215,
5100,-0.165,0.215,
5101,-0.175,0.205,
5102,-0.19,0.195,
5103,-0.185,0.21,
5104,-0.18,0.2,
5105,-0.17,0.215,
5106,-0.165,0.22,
5107,-0.18,0.21,
5108,-0.185,0.195,
5109,-0.195,0.195,
5110,-0.185,0.2,
5111,-0.185,0.2,
5112,-0.185,0.2,
5113,-0.195,0.195,
5114,-0.205,0.18,
5115,-0.215,0.185,
5116,-0.205,0.19,
5117,-0.2,0.18,
5118,-0.2,0.185,
5119,-0.21,0.16,
5120,-0.215,0.16,
5121,-0.23,0.16,
5122,-0.22,0.165,
5123,-0.22,0.175,
5124,-0.22,0.175,
5125,-0.23,0.155,
5126,-0.235,0.145,
5127,-0.245,0.155,
5128,-0.23,0.16,
5129,-0.235,0.165,
5130,-0.235,0.155,
5131,-0.23,0.14,
5132,-0.24,0.14,
5133,-0.255,0.155,
5134,-0.25,0.145,
5135,-0.245,0.145,
5136,-0.24,0.16,
5137,-0.265,0.145,
5138,-0.27,0.125,
5139,-0.265,0.125,
5140,-0.25,0.135,
5141,-0.255,0.14,
5142,-0.255,0.12,
5143,-0.26,0.13,
5144,-0.27,0.12,
5145,-0.275,0.135,
5146,-0.27,0.135,
5147,-0.265,0.125,
5148,-0.255,0.12,
5149,-0.275,0.115,
5150,-0.28,0.11,
5151,-0.285,0.11,
5152,-0.27,0.13,
5153,-0.265,0.14,
5154,-0.265,0.13,
5155,-0.275,0.12,
5156,-0.275,0.105,
5157,-0.28,0.115,
5158,-0.27,0.13,
5159,-0.28,0.13,
5160,-0.265,0.135,
5161,-0.27,0.12,
5162,-0.28,0.115,
5163,-0.28,0.12,
5164,-0.275,0.13,
5165,-0.27,0.135,
5166,-0.26,0.135,
5167,-0.27,0.115,
5168,-0.275,0.115,
5169,-0.27,0.115,
5170,-0.255,0.14,
5171,-0.235,0.14,
5172,-0.215,0.14,
5173,-0.21,0.14,
5174,-0.205,0.135,
5175,-0.2,0.125,
5176,-0.185,0.135,
5177,-0.18,0.14,
5178,-0.175,0.15,
5179,-0.18,0.14,
5180,-0.175,0.145,
5181,-0.17,0.14,
5182,-0.16,0.16,
5183,-0.145,0.15,
5184,-0.145,0.145,
5185,-0.15,0.14,
5186,-0.155,0.125,
5187,-0.155,0.14,
5188,-0.145,0.155,
5189,-0.155,0.155,
5190,-0.17,0.15,
5191,-0.18,0.12,
5192,-0.215,0.095,
5193,-0.215,0.105,
5194,-0.2,0.1,
5195,-0.185,0.12,
5196,-0.18,0.12,
5197,-0.19,0.135,
5198,-0.2,0.135,
5199,-0.21,0.165,
5200,-0.22,0.175,
5201,-0.23,0.175,
5202,-0.24,0.175,
5203,-0.255,0.16,
5204,-0.265,0.15,
5205,-0.275,0.145,
5206,-0.285,0.145,
5207,-0.29,0.155,
5208,-0.29,0.145,
5209,-0.3,0.14,
5210,-0.31,0.12,
5211,-0.315,0.13,
5212,-0.315,0.13,
5213,-0.305,0.14,
5214,-0.305,0.13,
5215,-0.305,0.12,
5216,-0.325,0.12,
5217,-0.32,0.135,
5218,-0.305,0.14,
5219,-0.3,0.145,
5220,-0.31,0.15,
5221,-0.325,0.14,
5222,-0.32,0.125,
5223,-0.33,0.13,
5224,-0.32,0.15,
5225,-0.33,0.135,
5226,-0.32,0.145,
5227,-0.325,0.135,
5228,-0.315,0.14,
5229,-0.32,0.135,
5230,-0.315,0.155,
5231,-0.3,0.145,
5232,-0.315,0.15,
5233,-0.3,0.14,
5234,-0.305,0.135,
5235,-0.315,0.14,
5236,-0.295,0.155,
5237,-0.3,0.165,
5238,-0.29,0.165,
5239,-0.3,0.165,
5240,-0.315,0.14,
5241,-0.325,0.16,
5242,-0.365,0.16,
5243,-0.42,0.15,
5244,-0.465,0.135,
5245,-0.46,0.135,
5246,-0.415,0.155,
5247,-0.335,0.21,
5248,-0.21,0.25,
5249,0.045,0.32,
5250,0.415,0.47,
5251,0.835,0.695,
5252,1.205,0.95,
5253,1.53,1.225,
5254,1.79,1.495,
5255,1.89,1.695,N
5256,1.855,1.715,
5257,1.56,1.535,
5258,1.025,1.13,
5259,0.405,0.595,
5260,-0.07,0.115,
5261,-0.325,-0.195,
5262,-0.4,-0.295,
5263,-0.415,-0.25,
5264,-0.36,-0.135,
5265,-0.275,-0.01,
5266,-0.195,0.125,
5267,-0.18,0.205,
5268,-0.215,0.225,
5269,-0.24,0.21,
5270,-0.25,0.175,
5271,-0.255,0.19,
5272,-0.26,0.21,
5273,-0.26,0.22,
5274,-0.28,0.205,
5275,-0.295,0.2,
5276,-0.31,0.18,
5277,-0.31,0.185,
5278,-0.315,0.185,
5279,-0.32,0.195,
5280,-0.305,0.18,
5281,-0.31,0.185,
5282,-0.325,0.175,
5283,-0.335,0.185,
5284,-0.325,0.205,
5285,-0.315,0.205,
5286,-0.32,0.2,
5287,-0.33,0.2,
5288,-0.34,0.18,
5289,-0.335,0.19,
5290,-0.325,0.21,
5291,-0.33,0.2,
5292,-0.33,0.21,
5293,-0.335,0.19,
5294,-0.33,0.19,
5295,-0.325,0.2,
5296,-0.325,0.2,
5297,-0.31,0.21,
5298,-0.315,0.21,
5299,-0.31,0.215,
5300,-0.315,0.195,
5301,-0.32,0.215,
5302,-0.305,0.22,
5303,-0.295,0.22,
5304,-0.29,0.235,
5305,-0.29,0.225,
5306,-0.305,0.215,
5307,-0.295,0.22,
5308,-0.29,0.23,
5309,-0.275,0.245,
5310,-0.26,0.24,
5311,-0.265,0.245,
5312,-0.265,0.235,
5313,-0.26,0.235,
5314,-0.25,0.24,
5315,-0.23,0.255,
5316,-0.22,0.26,
5317,-0.215,0.255,
5318,-0.205,0.255,
5319,-0.2,0.275,
5320,-0.185,0.295,
5321,-0.155,0.305,
5322,-0.145,0.325,
5323,-0.14,0.32,
5324,-0.125,0.33,
5325,-0.11,0.335,
5326,-0.085,0.35,
5327,-0.065,0.365,
5328,-0.045,0.385,
5329,-0.035,0.38,
5330,-0.035,0.39,
5331,-0.015,0.4,
5332,0.02,0.425,
5333,0.045,0.425,
5334,0.055,0.445,
5335,0.05,0.435,
5336,0.06,0.435,
5337,0.065,0.445,
5338,0.09,0.475,
5339,0.1,0.48,
5340,0.125,0.49,
5341,0.13,0.48,
5342,0.13,0.485,
5343,0.13,0.485,
5344,0.155,0.515,
5345,0.165,0.51,
5346,0.165,0.52,
5347,0.165,0.515,
5348,0.16,0.49,
5349,0.15,0.5,
5350,0.155,0.5,
5351,0.165,0.52,
5352,0.155,0.495,
5353,0.115,0.495,
5354,0.1,0.475,
5355,0.085,0.47,
5356,0.075,0.465,
5357,0.07,0.465,
5358,0.05,0.455,
5359,0.02,0.425,
5360,-0.01,0.405,
5361,-0.035,0.4,
5362,-0.05,0.385,
5363,-0.06,0.39,
5364,-0.09,0.34,
5365,-0.11,0.33,
5366,-0.14,0.31,
5367,-0.16,0.295,
5368,-0.165,0.295,
5369,-0.16,0.285,
5370,-0.17,0.28,
5371,-0.185,0.255,
5372,-0.2,0.245,
5373,-0.22,0.235,
5374,-0.22,0.24,
5375,-0.22,0.24,
5376,-0.225,0.22,
5377,-0.22,0.215,
5378,-0.25,0.195,
5379,-0.25,0.2,
5380,-0.245,0.215,
5381,-0.23,0.21,
5382,-0.225,0.2,
5383,-0.24,0.195,
5384,-0.255,0.17,
5385,-0.26,0.18,
5386,-0.255,0.19,
5387,-0.245,0.195,
5388,-0.24,0.195,
5389,-0.25,0.19,
5390,-0.25,0.18,
5391,-0.26,0.18,
5392,-0.245,0.195,
5393,-0.24,0.2,
5394,-0.245,0.19,
5395,-0.245,0.195,
5396,-0.255,0.185,
5397,-0.255,0.2,
5398,-0.235,0.205,
5399,-0.215,0.21,
5400,-0.22,0.205,
5401,-0.215,0.2,
5402,-0.24,0.195,
5403,-0.24,0.205,
5404,-0.215,0.225,
5405,-0.215,0.225,
5406,-0.22,0.21,
5407,-0.235,0.21,
5408,-0.23,0.215,
5409,-0.23,0.205,
5410,-0.22,0.23,
5411,-0.215,0.225,
5412,-0.21,0.225,
5413,-0.22,0.205,
5414,-0.225,0.205,
5415,-0.23,0.215,
5416,-0.22,0.225,
5417,-0.215,0.235,
5418,-0.205,0.235,
5419,-0.225,0.225,
5420,-0.225,0.21,
5421,-0.21,0.215,
5422,-0.225,0.225,
5423,-0.215,0.23,
5424,-0.215,0.235,
5425,-0.225,0.22,
5426,-0.24,0.21,
5427,-0.24,0.22,
5428,-0.225,0.225,
5429,-0.225,0.23,
5430,-0.225,0.22,
5431,-0.23,0.2,
5432,-0.24,0.2,
5433,-0.245,0.18,
5434,-0.255,0.2,
5435,-0.245,0.195,
5436,-0.245,0.205,
5437,-0.245,0.185,
5438,-0.26,0.18,
5439,-0.255,0.185,
5440,-0.255,0.18,
5441,-0.25,0.185,
5442,-0.26,0.185,
5443,-0.27,0.16,
5444,-0.275,0.155,
5445,-0.29,0.15,
5446,-0.28,0.17,
5447,-0.29,0.165,
5448,-0.285,0.15,
5449,-0.285,0.145,
5450,-0.315,0.135,
5451,-0.32,0.14,
5452,-0.31,0.14,
5453,-0.295,0.16,
5454,-0.295,0.145,
5455,-0.305,0.135,
5456,-0.325,0.12,
5457,-0.33,0.12,
5458,-0.325,0.13,
5459,-0.33,0.13,
5460,-0.31,0.125,
5461,-0.32,0.1,
5462,-0.33,0.11,
5463,-0.34,0.1,
5464,-0.325,0.11,
5465,-0.32,0.125,
5466,-0.325,0.1,
5467,-0.335,0.095,
5468,-0.35,0.1,
5469,-0.35,0.095,
5470,-0.355,0.09,
5471,-0.335,0.105,
5472,-0.345,0.105,
5473,-0.345,0.095,
5474,-0.355,0.07,
5475,-0.365,0.07,
5476,-0.345,0.075,
5477,-0.34,0.085,
5478,-0.335,0.09,
5479,-0.35,0.065,
5480,-0.355,0.07,
5481,-0.365,0.065,
5482,-0.365,0.075,
5483,-0.345,0.09,
5484,-0.345,0.09,
5485,-0.36,0.08,
5486,-0.37,0.065,
5487,-0.38,0.075,
5488,-0.375,0.085,
5489,-0.355,0.08,
5490,-0.355,0.09,
5491,-0.37,0.075,
5492,-0.37,0.07,
5493,-0.37,0.08,
5494,-0.355,0.09,
5495,-0.335,0.085,
5496,-0.33,0.075,
5497,-0.33,0.085,
5498,-0.325,0.07,
5499,-0.31,0.075,
5500,-0.295,0.09,
5501,-0.275,0.1,
5502,-0.275,0.085,
5503,-0.28,0.09,
5504,-0.29,0.085,
5505,-0.28,0.08,
5506,-0.27,0.09,
5507,-0.265,0.09,
5508,-0.265,0.08,
5509,-0.26,0.08,
5510,-0.265,0.07,
5511,-0.27,0.085,
5512,-0.27,0.08,
5513,-0.275,0.07,
5514,-0.29,0.055,
5515,-0.305,0.035,
5516,-0.33,0.015,
5517,-0.34,0.02,
5518,-0.33,0.03,
5519,-0.315,0.035,
5520,-0.3,0.035,
5521,-0.3,0.045,
5522,-0.31,0.07,
5523,-0.34,0.07,
5524,-0.345,0.09,
5525,-0.345,0.08,
5526,-0.355,0.08,
5527,-0.36,0.06,
5528,-0.38,0.06,
5529,-0.395,0.055,
5530,-0.395,0.06,
5531,-0.38,0.06,
5532,-0.395,0.06,
5533,-0.405,0.04,
5534,-0.42,0.03,
5535,-0.435,0.025,
5536,-0.435,0.035,
5537,-0.415,0.04,
5538,-0.425,0.02,
5539,-0.435,0.025,
5540,-0.435,0.01,
5541,-0.445,0.025,
5542,-0.43,0.035,
5543,-0.43,0.04,
5544,-0.425,0.045,
5545,-0.425,0.03,
5546,-0.44,0.025,
5547,-0.46,0.025,
5548,-0.44,0.035,
5549,-0.445,0.045,
5550,-0.44,0.035,
5551,-0.445,0.03,
5552,-0.455,0.025,
5553,-0.465,0.015,
5554,-0.46,0.025,
5555,-0.44,0.03,
5556,-0.445,0.03,
5557,-0.44,0.02,
5558,-0.44,0.015,
5559,-0.445,0.025,
5560,-0.435,0.04,
5561,-0.43,0.04,
5562,-0.43,0.03,
5563,-0.435,0.045,
5564,-0.455,0.02,
5565,-0.465,0.03,
5566,-0.495,0.04,
5567,-0.54,0.03,
5568,-0.59,0.02,
5569,-0.605,0.005,
5570,-0.565,0.0,
5571,-0.51,0.06,
5572,-0.415,0.1,
5573,-0.265,0.14,
5574,-0.01,0.22,
5575,0.335,0.355,
5576,0.665,0.54,
5577,0.975,0.765,
5578,1.285,0.995,
5579,1.525,1.2,
5580,1.645,1.385,N
5581,1.655,1.445,
5582,1.49,1.38,
5583,1.105,1.155,
5584,0.58,0.79,
5585,0.075,0.34,
5586,-0.255,-0.03,
5587,-0.445,-0.285,
5588,-0.545,-0.395,
5589,-0.59,-0.38,
5590,-0.575,-0.315,
5591,-0.48,-0.215,
5592,-0.39,-0.115,
5593,-0.355,-0.035,
5594,-0.375,0.035,
5595,-0.405,0.06,
5596,-0.405,0.065,
5597,-0.4,0.04,
5598,-0.39,0.04,
5599,-0.41,0.04,
5600,-0.44,0.035,
5601,-0.46,0.035,
5602,-0.465,0.035,
5603,-0.465,0.035,
5604,-0.475,0.025,
5605,-0.46,0.025,
5606,-0.48,0.015,
5607,-0.485,0.015,
5608,-0.485,0.015,
5609,-0.475,0.035,
5610,-0.47,0.03,
5611,-0.48,0.03,
5612,-0.5,0.02,
5613,-0.495,0.025,
5614,-0.485,0.035,
5615,-0.475,0.025,
5616,-0.475,0.02,
5617,-0.48,0.02,
5618,-0.49,0.015,
5619,-0.49,0.02,
5620,-0.495,0.03,
5621,-0.475,0.04,
5622,-0.475,0.035,
5623,-0.475,0.015,
5624,-0.485,0.015,
5625,-0.48,0.02,
5626,-0.48,0.04,
5627,-0.475,0.035,
5628,-0.47,0.045,
5629,-0.47,0.035,
5630,-0.47,0.03,
5631,-0.48,0.025,
5632,-0.47,0.035,
5633,-0.455,0.05,
5634,-0.455,0.045,
5635,-0.465,0.03,
5636,-0.46,0.025,
5637,-0.45,0.035,
5638,-0.445,0.05,
5639,-0.43,0.07,
5640,-0.43,0.07,
5641,-0.425,0.07,
5642,-0.43,0.05,
5643,-0.44,0.06,
5644,-0.405,0.075,
5645,-0.385,0.09,
5646,-0.39,0.095,
5647,-0.38,0.075,
5648,-0.385,0.085,
5649,-0.38,0.1,
5650,-0.36,0.115,
5651,-0.335,0.13,
5652,-0.34,0.12,
5653,-0.33,0.12,
5654,-0.31,0.12,
5655,-0.305,0.14,
5656,-0.275,0.155,
5657,-0.26,0.18,
5658,-0.245,0.19,
5659,-0.225,0.19,
5660,-0.215,0.2,
5661,-0.22,0.205,
5662,-0.19,0.23,
5663,-0.165,0.235,
5664,-0.155,0.24,
5665,-0.14,0.25,
5666,-0.14,0.24,
5667,-0.135,0.245,
5668,-0.11,0.285,
5669,-0.09,0.28,
5670,-0.08,0.3,
5671,-0.065,0.295,
5672,-0.07,0.28,
5673,-0.06,0.295,
5674,-0.045,0.3,
5675,-0.02,0.315,
5676,-0.02,0.33,
5677,-0.025,0.32,
5678,-0.025,0.33,
5679,-0.025,0.325,
5680,-0.005,0.335,
5681,-0.005,0.335,
5682,-0.005,0.33,
5683,-0.02,0.32,
5684,-0.03,0.305,
5685,-0.04,0.305,
5686,-0.05,0.315,
5687,-0.05,0.31,
5688,-0.06,0.29,
5689,-0.085,0.27,
5690,-0.1,0.255,
5691,-0.13,0.245,
5692,-0.14,0.24,
5693,-0.155,0.24,
5694,-0.175,0.215,
5695,-0.2,0.195,
5696,-0.235,0.17,
5697,-0.245,0.15,
5698,-0.26,0.155,
5699,-0.27,0.145,
5700,-0.275,0.13,
5701,-0.295,0.11,
5702,-0.32,0.08,
5703,-0.33,0.07,
5704,-0.325,0.07,
5705,-0.33,0.07,
5706,-0.35,0.055,
5707,-0.355,0.04,
5708,-0.36,0.025,
5709,-0.375,0.025,
5710,-0.365,0.03,
5711,-0.375,0.03,
5712,-0.38,0.03,
5713,-0.375,0.005,
5714,-0.4,-0.005,
5715,-0.405,0.0,
5716,-0.385,0.01,
5717,-0.39,0.005,
5718,-0.38,0.0,
5719,-0.39,0.0,
5720,-0.4,-0.015,
5721,-0.41,-0.015,
5722,-0.395,0.005,
5723,-0.395,0.005,
5724,-0.39,-0.01,
5725,-0.385,-0.01,
5726,-0.4,-0.02,
5727,-0.4,-0.01,
5728,-0.4,-0.005,
5729,-0.385,0.01,
5730,-0.39,0.005,
5731,-0.375,0.0,
5732,-0.385,-0.01,
5733,-0.39,-0.01,
5734,-0.385,0.01,
5735,-0.37,0.0,
5736,-0.365,0.005,
5737,-0.375,0.0,
5738,-0.37,-0.015,
5739,-0.38,0.015,
5740,-0.38,0.015,
5741,-0.365,0.03,
5742,-0.355,0.015,
5743,-0.355,0.005,
5744,-0.36,-0.005,
5745,-0.365,0.015,
5746,-0.37,0.025,
5747,-0.355,0.025,
5748,-0.34,0.015,
5749,-0.355,0.015,
5750,-0.36,0.01,
5751,-0.365,0.015,
5752,-0.35,0.015,
5753,-0.345,0.025,
5754,-0.35,0.015,
5755,-0.365,0.0,
5756,-0.365,-0.015,
5757,-0.36,-0.015,
5758,-0.37,0.0,
5759,-0.355,0.01,
5760,-0.355,0.005,
5761,-0.36,0.0,
5762,-0.38,-0.01,
5763,-0.37,-0.005,
5764,-0.37,-0.015,
5765,-0.375,0.0,
5766,-0.365,-0.015,
5767,-0.38,-0.045,
5768,-0.395,-0.035,
5769,-0.395,-0.04,
5770,-0.39,-0.03,
5771,-0.39,-0.025,
5772,-0.39,-0.03,
5773,-0.405,-0.035,
5774,-0.415,-0.06,
5775,-0.42,-0.055,
5776,-0.415,-0.055,
5777,-0.405,-0.05,
5778,-0.41,-0.065,
5779,-0.435,-0.07,
5780,-0.43,-0.07,
5781,-0.445,-0.075,
5782,-0.435,-0.07,
5783,-0.43,-0.08,
5784,-0.43,-0.09,
5785,-0.445,-0.1,
5786,-0.445,-0.11,
5787,-0.445,-0.105,
5788,-0.445,-0.1,
5789,-0.44,-0.09,
5790,-0.44,-0.1,
5791,-0.45,-0.105,
5792,-0.46,-0.13,
5793,-0.465,-0.12,
5794,-0.465,-0.12,
5795,-0.46,-0.115,
5796,-0.455,-0.13,
5797,-0.465,-0.125,
5798,-0.47,-0.135,
5799,-0.485,-0.135,
5800,-0.465,-0.125,
5801,-0.465,-0.12,
5802,-0.465,-0.12,
5803,-0.48,-0.14,
5804,-0.475,-0.155,
5805,-0.495,-0.15,
5806,-0.475,-0.145,
5807,-0.465,-0.14,
5808,-0.47,-0.14,
5809,-0.48,-0.14,
5810,-0.495,-0.165,
5811,-0.49,-0.15,
5812,-0.475,-0.145,
5813,-0.465,-0.14,
5814,-0.465,-0.145,
5815,-0.47,-0.155,
5816,-0.47,-0.16,
5817,-0.455,-0.155,
5818,-0.435,-0.14,
5819,-0.41,-0.135,
5820,-0.4,-0.14,
5821,-0.405,-0.14,
5822,-0.405,-0.16,
5823,-0.415,-0.155,
5824,-0.395,-0.125,
5825,-0.385,-0.125,
5826,-0.365,-0.135,
5827,-0.38,-0.15,
5828,-0.39,-0.16,
5829,-0.4,-0.155,
5830,-0.4,-0.16,
5831,-0.38,-0.15,
5832,-0.375,-0.17,
5833,-0.375,-0.175,
5834,-0.39,-0.19,
5835,-0.41,-0.185,
5836,-0.415,-0.2,
5837,-0.425,-0.19,
5838,-0.435,-0.21,
5839,-0.44,-0.23,
5840,-0.445,-0.23,
5841,-0.445,-0.215,
5842,-0.41,-0.2,
5843,-0.415,-0.17,
5844,-0.42,-0.165,
5845,-0.44,-0.16,
5846,-0.47,-0.165,
5847,-0.49,-0.16,
5848,-0.485,-0.155,
5849,-0.49,-0.155,
5850,-0.505,-0.17,
5851,-0.51,-0.185,
5852,-0.525,-0.185,
5853,-0.53,-0.19,
5854,-0.555,-0.19,
5855,-0.545,-0.195,
5856,-0.55,-0.19,
5857,-0.565,-0.2,
5858,-0.56,-0.21,
5859,-0.565,-0.215,
5860,-0.56,-0.195,
5861,-0.555,-0.2,
5862,-0.555,-0.2,
5863,-0.55,-0.21,
5864,-0.57,-0.22,
5865,-0.575,-0.21,
5866,-0.56,-0.205,
5867,-0.555,-0.19,
5868,-0.56,-0.195,
5869,-0.555,-0.215,
5870,-0.57,-0.225,
5871,-0.565,-0.21,
5872,-0.555,-0.195,
5873,-0.545,-0.195,
5874,-0.555,-0.19,
5875,-0.56,-0.2,
5876,-0.575,-0.215,
5877,-0.58,-0.2,
5878,-0.585,-0.19,
5879,-0.615,-0.19,
5880,-0.675,-0.21,
5881,-0.725,-0.23,
5882,-0.725,-0.235,
5883,-0.655,-0.195,
5884,-0.565,-0.145,
5885,-0.445,-0.1,
5886,-0.205,-0.035,
5887,0.135,0.085,
5888,0.515,0.29,
5889,0.89,0.535,
5890,1.24,0.795,
5891,1.495,1.05,
5892,1.62,1.255,N
5893,1.6,1.34,
5894,1.41,1.27,
5895,0.99,1.03,
5896,0.45,0.63,
5897,-0.045,0.165,
5898,-0.405,-0.26,
5899,-0.615,-0.545,
5900,-0.675,-0.645,
5901,-0.665,-0.615,
5902,-0.625,-0.505,
5903,-0.535,-0.405,
5904,-0.465,-0.295,
5905,-0.45,-0.21,
5906,-0.48,-0.175,
5907,-0.515,-0.16,
5908,-0.52,-0.17,
5909,-0.52,-0.175,
5910,-0.53,-0.19,
5911,-0.54,-0.19,
5912,-0.555,-0.2,
5913,-0.57,-0.195,
5914,-0.58,-0.2,
5915,-0.575,-0.205,
5916,-0.58,-0.195,
5917,-0.595,-0.2,
5918,-0.61,-0.22,
5919,-0.635,-0.215,
5920,-0.615,-0.205,
5921,-0.6,-0.19,
5922,-0.605,-0.2,
5923,-0.61,-0.21,
5924,-0.62,-0.215,
5925,-0.62,-0.22,
5926,-0.61,-0.2,
5927,-0.6,-0.195,
5928,-0.6,-0.19,
5929,-0.61,-0.205,
5930,-0.615,-0.205,
5931,-0.61,-0.2,
5932,-0.615,-0.195,
5933,-0.6,-0.195,
5934,-0.595,-0.195,
5935,-0.605,-0.2,
5936,-0.605,-0.21,
5937,-0.605,-0.21,
5938,-0.6,-0.185,
5939,-0.59,-0.175,
5940,-0.59,-0.175,
5941,-0.59,-0.195,
5942,-0.605,-0.205,
5943,-0.595,-0.19,
5944,-0.595,-0.18,
5945,-0.575,-0.175,
5946,-0.57,-0.175,
5947,-0.565,-0.17,
5948,-0.575,-0.18,
5949,-0.57,-0.165,
5950,-0.56,-0.165,
5951,-0.54,-0.15,
5952,-0.55,-0.15,
5953,-0.545,-0.165,
5954,-0.54,-0.175,
5955,-0.545,-0.15,
5956,-0.52,-0.135,
5957,-0.52,-0.14,
5958,-0.5,-0.125,
5959,-0.5,-0.13,
5960,-0.495,-0.14,
5961,-0.49,-0.12,
5962,-0.475,-0.1,
5963,-0.45,-0.095,
5964,-0.445,-0.09,
5965,-0.42,-0.085,
5966,-0.415,-0.08,
5967,-0.415,-0.065,
5968,-0.37,-0.045,
5969,-0.35,-0.025,
5970,-0.33,-0.02,
5971,-0.33,-0.025,
5972,-0.31,-0.02,
5973,-0.3,-0.01,
5974,-0.28,0.015,
5975,-0.245,0.04,
5976,-0.225,0.03,
5977,-0.205,0.045,
5978,-0.205,0.04,
5979,-0.19,0.05,
5980,-0.17,0.065,
5981,-0.145,0.07,
5982,-0.14,0.075,
5983,-0.125,0.075,
5984,-0.12,0.07,
5985,-0.115,0.09,
5986,-0.105,0.105,
5987,-0.09,0.115,
5988,-0.065,0.115,
5989,-0.075,0.125,
5990,-0.07,0.12,
5991,-0.065,0.13,
5992,-0.06,0.145,
5993,-0.05,0.14,
5994,-0.045,0.14,
5995,-0.06,0.13,
5996,-0.08,0.135,
5997,-0.08,0.135,
5998,-0.095,0.135,
5999,-0.085,0.115,
6000,-0.095,0.115,
6001,-0.125,0.085,
6002,-0.15,0.07,
6003,-0.175,0.06,
6004,-0.18,0.05,
6005,-0.2,0.055,
6006,-0.22,0.035,
6007,-0.24,0.005,
6008,-0.27,-0.01,
6009,-0.31,-0.025,
6010,-0.33,-0.035,
6011,-0.335,-0.05,
6012,-0.36,-0.065,
6013,-0.37,-0.08,
6014,-0.385,-0.11,
6015,-0.425,-0.125,
6016,-0.43,-0.12,
6017,-0.415,-0.14,
6018,-0.425,-0.145,
6019,-0.455,-0.155,
6020,-0.465,-0.165,
6021,-0.47,-0.18,
6022,-0.475,-0.175,
6023,-0.47,-0.185,
6024,-0.465,-0.185,
6025,-0.47,-0.195,
6026,-0.485,-0.21,
6027,-0.505,-0.205,
6028,-0.495,-0.2,
6029,-0.495,-0.185,
6030,-0.485,-0.19,
6031,-0.49,-0.205,
6032,-0.495,-0.215,
6033,-0.5,-0.215,
6034,-0.49,-0.205,
6035,-0.49,-0.205,
6036,-0.49,-0.2,
6037,-0.48,-0.22,
6038,-0.505,-0.22,
6039,-0.49,-0.21,
6040,-0.49,-0.2,
6041,-0.475,-0.205,
6042,-0.485,-0.21,
6043,-0.475,-0.22,
6044,-0.48,-0.215,
6045,-0.51,-0.205,
6046,-0.485,-0.195,
6047,-0.475,-0.19,
6048,-0.47,-0.19,
6049,-0.47,-0.195,
6050,-0.47,-0.2,
6051,-0.475,-0.205,
6052,-0.46,-0.195,
6053,-0.455,-0.175,
6054,-0.445,-0.18,
6055,-0.445,-0.19,
6056,-0.45,-0.2,
6057,-0.455,-0.18,
6058,-0.44,-0.18,
6059,-0.435,-0.175,
6060,-0.43,-0.17,
6061,-0.445,-0.185,
6062,-0.44,-0.18,
6063,-0.445,-0.175,
6064,-0.435,-0.175,
6065,-0.435,-0.18,
6066,-0.43,-0.17,
6067,-0.44,-0.185,
6068,-0.445,-0.185,
6069,-0.445,-0.19,
6070,-0.44,-0.175,
6071,-0.43,-0.18,
6072,-0.435,-0.185,
6073,-0.45,-0.195,
6074,-0.46,-0.21,
6075,-0.45,-0.2,
6076,-0.46,-0.2,
6077,-0.445,-0.195,
6078,-0.45,-0.195,
6079,-0.46,-0.2,
6080,-0.46,-0.205,
6081,-0.465,-0.21,
6082,-0.46,-0.21,
6083,-0.455,-0.2,
6084,-0.47,-0.21,
6085,-0.475,-0.215,
6086,-0.48,-0.23,
6087,-0.495,-0.23,
6088,-0.49,-0.22,
6089,-0.475,-0.215,
6090,-0.475,-0.24,
6091,-0.49,-0.25,
6092,-0.505,-0.25,
6093,-0.515,-0.24,
6094,-0.51,-0.235,
6095,-0.5,-0.235,
6096,-0.495,-0.24,
6097,-0.505,-0.26,
6098,-0.515,-0.26,
6099,-0.52,-0.26,
6100,-0.515,-0.255,
6101,-0.5,-0.245,
6102,-0.51,-0.25,
6103,-0.515,-0.27,
6104,-0.525,-0.27,
6105,-0.52,-0.265,
6106,-0.525,-0.27,
6107,-0.515,-0.26,
6108,-0.515,-0.255,
6109,-0.52,-0.27,
6110,-0.53,-0.27,
6111,-0.535,-0.275,
6112,-0.545,-0.265,
6113,-0.53,-0.27,
6114,-0.53,-0.275,
6115,-0.545,-0.285,
6116,-0.545,-0.295,
6117,-0.55,-0.29,
6118,-0.54,-0.26,
6119,-0.54,-0.275,
6120,-0.54,-0.265,
6121,-0.545,-0.275,
6122,-0.55,-0.295,
6123,-0.545,-0.285,
6124,-0.545,-0.28,
6125,-0.54,-0.275,
6126,-0.545,-0.285,
6127,-0.545,-0.295,
6128,-0.55,-0.3,
6129,-0.565,-0.29,
6130,-0.555,-0.28,
6131,-0.55,-0.285,
6132,-0.55,-0.28,
6133,-0.545,-0.295,
6134,-0.555,-0.3,
6135,-0.545,-0.31,
6136,-0.545,-0.28,
6137,-0.525,-0.28,
6138,-0.53,-0.28,
6139,-0.525,-0.295,
6140,-0.52,-0.3,
6141,-0.515,-0.295,
6142,-0.485,-0.28,
6143,-0.46,-0.28,
6144,-0.46,-0.27,
6145,-0.465,-0.265,
6146,-0.465,-0.27,
6147,-0.475,-0.275,
6148,-0.46,-0.26,
6149,-0.44,-0.26,
6150,-0.435,-0.26,
6151,-0.435,-0.27,
6152,-0.44,-0.285,
6153,-0.45,-0.285,
6154,-0.44,-0.26,
6155,-0.425,-0.26,
6156,-0.415,-0.275,
6157,-0.42,-0.275,
6158,-0.44,-0.295,
6159,-0.45,-0.295,
6160,-0.46,-0.295,
6161,-0.46,-0.295,
6162,-0.485,-0.315,
6163,-0.485,-0.32,
6164,-0.485,-0.335,
6165,-0.475,-0.335,
6166,-0.465,-0.315,
6167,-0.465,-0.29,
6168,-0.475,-0.27,
6169,-0.5,-0.26,
6170,-0.515,-0.28,
6171,-0.53,-0.28,
6172,-0.52,-0.265,
6173,-0.525,-0.265,
6174,-0.54,-0.27,
6175,-0.555,-0.285,
6176,-0.57,-0.305,
6177,-0.58,-0.3,
6178,-0.585,-0.295,
6179,-0.58,-0.285,
6180,-0.595,-0.285,
6181,-0.6,-0.3,
6182,-0.61,-0.295,
6183,-0.61,-0.31,
6184,-0.6,-0.29,
6185,-0.6,-0.285,
6186,-0.595,-0.285,
6187,-0.605,-0.29,
6188,-0.615,-0.305,
6189,-0.62,-0.28,
6190,-0.61,-0.285,
6191,-0.6,-0.28,
6192,-0.615,-0.285,
6193,-0.625,-0.295,
6194,-0.615,-0.305,
6195,-0.61,-0.295,
6196,-0.605,-0.28,
6197,-0.58,-0.28,
6198,-0.59,-0.27,
6199,-0.59,-0.285,
6200,-0.59,-0.3,
6201,-0.6,-0.295,
6202,-0.61,-0.27,
6203,-0.635,-0.26,
6204,-0.69,-0.285,
6205,-0.735,-0.315,
6206,-0.76,-0.325,
6207,-0.73,-0.295,
6208,-0.66,-0.265,
6209,-0.56,-0.215,
6210,-0.4,-0.17,
6211,-0.1,-0.085,
6212,0.265,0.075,
6213,0.655,0.31,
6214,1.03,0.57,
6215,1.365,0.835,
6216,1.6,1.08,N
6217,1.685,1.235,
6218,1.595,1.24,
6219,1.245,1.085,
6220,0.725,0.765,
6221,0.17,0.33,
6222,-0.275,-0.125,
6223,-0.565,-0.47,
6224,-0.655,-0.65,
6225,-0.695,-0.685,
6226,-0.68,-0.625,
6227,-0.645,-0.545,
6228,-0.56,-0.455,
6229,-0.495,-0.36,
6230,-0.485,-0.29,
6231,-0.515,-0.24,
6232,-0.54,-0.225,
6233,-0.545,-0.225,
6234,-0.55,-0.255,
6235,-0.55,-0.265,
6236,-0.555,-0.27,
6237,-0.57,-0.26,
6238,-0.59,-0.245,
6239,-0.58,-0.235,
6240,-0.595,-0.255,
6241,-0.6,-0.265,
6242,-0.61,-0.27,
6243,-0.625,-0.27,
6244,-0.6,-0.26,
6245,-0.605,-0.265,
6246,-0.605,-0.25,
6247,-0.615,-0.265,
6248,-0.62,-0.26,
6249,-0.63,-0.26,
6250,-0.62,-0.255,
6251,-0.605,-0.245,
6252,-0.61,-0.25,
6253,-0.61,-0.26,
6254,-0.625,-0.265,
6255,-0.63,-0.26,
6256,-0.62,-0.24,
6257,-0.615,-0.245,
6258,-0.62,-0.245,
6259,-0.62,-0.245,
6260,-0.62,-0.26,
6261,-0.63,-0.26,
6262,-0.625,-0.235,
6263,-0.61,-0.23,
6264,-0.6,-0.24,
6265,-0.615,-0.255,
6266,-0.615,-0.245,
6267,-0.605,-0.25,
6268,-0.6,-0.24,
6269,-0.585,-0.23,
6270,-0.585,-0.22,
6271,-0.59,-0.225,
6272,-0.59,-0.23,
6273,-0.59,-0.22,
6274,-0.58,-0.21,
6275,-0.575,-0.205,
6276,-0.565,-0.2,
6277,-0.56,-0.205,
6278,-0.565,-0.205,
6279,-0.56,-0.19,
6280,-0.55,-0.18,
6281,-0.52,-0.17,
6282,-0.515,-0.17,
6283,-0.525,-0.175,
6284,-0.525,-0.185,
6285,-0.51,-0.155,
6286,-0.485,-0.145,
6287,-0.465,-0.145,
6288,-0.45,-0.145,
6289,-0.445,-0.13,
6290,-0.44,-0.135,
6291,-0.43,-0.1,
6292,-0.4,-0.09,
6293,-0.385,-0.075,
6294,-0.38,-0.075,
6295,-0.365,-0.07,
6296,-0.34,-0.07,
6297,-0.325,-0.05,
6298,-0.305,-0.03,
6299,-0.275,-0.01,
6300,-0.265,0.005,
6301,-0.245,0.0,
6302,-0.235,0.01,
6303,-0.22,0.03,
6304,-0.185,0.055,
6305,-0.17,0.055,
6306,-0.165,0.07,
6307,-0.155,0.06,
6308,-0.15,0.065,
6309,-0.14,0.09,
6310,-0.125,0.105,
6311,-0.1,0.115,
6312,-0.095,0.115,
6313,-0.085,0.11,
6314,-0.08,0.1,
6315,-0.085,0.12,
6316,-0.07,0.13,
6317,-0.055,0.145,
6318,-0.045,0.145,
6319,-0.05,0.125,
6320,-0.055,0.13,
6321,-0.075,0.14,
6322,-0.065,0.13,
6323,-0.07,0.14,
6324,-0.08,0.135,
6325,-0.095,0.115,
6326,-0.12,0.09,
6327,-0.14,0.095,
6328,-0.14,0.095,
6329,-0.155,0.08,
6330,-0.17,0.065,
6331,-0.205,0.04,
6332,-0.235,0.02,
6333,-0.26,0.01,
6334,-0.275,0.025,
6335,-0.3,-0.01,
6336,-0.315,-0.025,
6337,-0.345,-0.055,
6338,-0.36,-0.075,
6339,-0.38,-0.09,
6340,-0.395,-0.1,
6341,-0.385,-0.105,
6342,-0.415,-0.12,
6343,-0.425,-0.135,
6344,-0.44,-0.14,
6345,-0.455,-0.145,
6346,-0.45,-0.145,
6347,-0.44,-0.145,
6348,-0.455,-0.16,
6349,-0.465,-0.165,
6350,-0.475,-0.195,
6351,-0.48,-0.19,
6352,-0.47,-0.185,
6353,-0.47,-0.18,
6354,-0.475,-0.185,
6355,-0.48,-0.2,
6356,-0.485,-0.205,
6357,-0.485,-0.205,
6358,-0.47,-0.195,
6359,-0.47,-0.195,
6360,-0.47,-0.18,
6361,-0.475,-0.2,
6362,-0.485,-0.195,
6363,-0.48,-0.19,
6364,-0.475,-0.18,
6365,-0.465,-0.185,
6366,-0.46,-0.185,
6367,-0.465,-0.19,
6368,-0.48,-0.2,
6369,-0.485,-0.19,
6370,-0.47,-0.18,
6371,-0.455,-0.18,
6372,-0.445,-0.185,
6373,-0.455,-0.19,
6374,-0.465,-0.195,
6375,-0.46,-0.19,
6376,-0.455,-0.16,
6377,-0.435,-0.16,
6378,-0.44,-0.155,
6379,-0.44,-0.17,
6380,-0.45,-0.17,
6381,-0.45,-0.175,
6382,-0.44,-0.16,
6383,-0.44,-0.16,
6384,-0.44,-0.165,
6385,-0.45,-0.165,
6386,-0.445,-0.17,
6387,-0.445,-0.17,
6388,-0.43,-0.145,
6389,-0.43,-0.155,
6390,-0.42,-0.16,
6391,-0.425,-0.16,
6392,-0.425,-0.165,
6393,-0.435,-0.145,
6394,-0.42,-0.14,
6395,-0.425,-0.13,
6396,-0.43,-0.145,
6397,-0.435,-0.14,
6398,-0.435,-0.15,
6399,-0.44,-0.16,
6400,-0.435,-0.145,
6401,-0.42,-0.135,
6402,-0.415,-0.135,
6403,-0.435,-0.155,
6404,-0.44,-0.15,
6405,-0.445,-0.16,
6406,-0.445,-0.14,
6407,-0.445,-0.14,
6408,-0.445,-0.14,
6409,-0.445,-0.15,
6410,-0.46,-0.17,
6411,-0.47,-0.155,
6412,-0.46,-0.16,
6413,-0.455,-0.155,
6414,-0.46,-0.17,
6415,-0.465,-0.18,
6416,-0.475,-0.195,
6417,-0.48,-0.185,
6418,-0.465,-0.17,
6419,-0.46,-0.16,
6420,-0.47,-0.165,
6421,-0.48,-0.18,
6422,-0.48,-0.195,
6423,-0.495,-0.19,
6424,-0.48,-0.18,
6425,-0.475,-0.185,
6426,-0.475,-0.185,
6427,-0.495,-0.2,
6428,-0.495,-0.2,
6429,-0.505,-0.205,
6430,-0.505,-0.19,
6431,-0.5,-0.2,
6432,-0.5,-0.205,
6433,-0.505,-0.21,
6434,-0.51,-0.225,
6435,-0.505,-0.22,
6436,-0.5,-0.2,
6437,-0.5,-0.205,
6438,-0.485,-0.2,
6439,-0.505,-0.21,
6440,-0.52,-0.22,
6441,-0.525,-0.21,
6442,-0.51,-0.205,
6443,-0.505,-0.21,
6444,-0.51,-0.215,
6445,-0.51,-0.22,
6446,-0.525,-0.22,
6447,-0.53,-0.22,
6448,-0.52,-0.21,
6449,-0.51,-0.215,
6450,-0.505,-0.215,
6451,-0.505,-0.225,
6452,-0.515,-0.235,
6453,-0.515,-0.235,
6454,-0.505,-0.215,
6455,-0.515,-0.21,
6456,-0.51,-0.215,
6457,-0.515,-0.22,
6458,-0.515,-0.22,
6459,-0.525,-0.205,
6460,-0.505,-0.21,
6461,-0.49,-0.2,
6462,-0.5,-0.215,
6463,-0.505,-0.215,
6464,-0.5,-0.22,
6465,-0.51,-0.22,
6466,-0.5,-0.21,
6467,-0.49,-0.215,
6468,-0.475,-0.215,
6469,-0.47,-0.22,
6470,-0.48,-0.21,
6471,-0.475,-0.21,
6472,-0.455,-0.22,
6473,-0.435,-0.205,
6474,-0.44,-0.205,
6475,-0.425,-0.21,
6476,-0.42,-0.215,
6477,-0.435,-0.205,
6478,-0.415,-0.19,
6479,-0.4,-0.18,
6480,-0.405,-0.175,
6481,-0.39,-0.2,
6482,-0.39,-0.21,
6483,-0.39,-0.195,
6484,-0.39,-0.185,
6485,-0.39,-0.185,
6486,-0.385,-0.2,
6487,-0.385,-0.2,
6488,-0.39,-0.22,
6489,-0.405,-0.22,
6490,-0.395,-0.22,
6491,-0.395,-0.205,
6492,-0.41,-0.22,
6493,-0.42,-0.225,
6494,-0.435,-0.24,
6495,-0.44,-0.245,
6496,-0.44,-0.24,
6497,-0.41,-0.24,
6498,-0.405,-0.235,
6499,-0.395,-0.235,
6500,-0.415,-0.215,
6501,-0.415,-0.19,
6502,-0.435,-0.165,
6503,-0.435,-0.165,
6504,-0.445,-0.175,
6505,-0.46,-0.18,
6506,-0.48,-0.2,
6507,-0.505,-0.195,
6508,-0.505,-0.185,
6509,-0.5,-0.19,
6510,-0.505,-0.19,
6511,-0.5,-0.2,
6512,-0.52,-0.205,
6513,-0.53,-0.195,
6514,-0.53,-0.195,
6515,-0.525,-0.195,
6516,-0.525,-0.215,
6517,-0.54,-0.215,
6518,-0.545,-0.225,
6519,-0.55,-0.21,
6520,-0.535,-0.185,
6521,-0.53,-0.2,
6522,-0.53,-0.195,
6523,-0.53,-0.205,
6524,-0.54,-0.205,
6525,-0.545,-0.195,
6526,-0.545,-0.195,
6527,-0.525,-0.185,
6528,-0.53,-0.18,
6529,-0.535,-0.195,
6530,-0.535,-0.205,
6531,-0.545,-0.19,
6532,-0.525,-0.18,
6533,-0.515,-0.175,
6534,-0.515,-0.175,
6535,-0.525,-0.175,
6536,-0.55,-0.195,
6537,-0.55,-0.19,
6538,-0.575,-0.18,
6539,-0.6,-0.195,
6540,-0.64,-0.205,
6541,-0.68,-0.22,
6542,-0.665,-0.215,
6543,-0.61,-0.19,
6544,-0.54,-0.145,
6545,-0.46,-0.1,
6546,-0.295,-0.065,
6547,-0.035,-0.01,
6548,0.3,0.125,
6549,0.63,0.325,
6550,0.935,0.53,
6551,1.23,0.725,
6552,1.48,0.935,
6553,1.625,1.11,N
6554,1.665,1.205,
6555,1.545,1.21,
6556,1.22,1.1,
6557,0.75,0.82,
6558,0.24,0.42,
6559,-0.17,0.005,
6560,-0.44,-0.305,
6561,-0.59,-0.48,
6562,-0.635,-0.52,
6563,-0.605,-0.505,
6564,-0.565,-0.45,
6565,-0.485,-0.365,
6566,-0.42,-0.265,
6567,-0.42,-0.19,
6568,-0.435,-0.13,
6569,-0.445,-0.115,
6570,-0.455,-0.135,
6571,-0.47,-0.15,
